0.000701913600000000
0.000697055900000000
0.000695597600000000
0.000698283100000000
0.000705441400000000
0.000717028900000000
0.000732670300000000
0.000751722600000000
0.000773232300000000
0.000796203100000000
0.000819791300000000
0.000843406000000000
0.000866728300000000
0.000889993200000000
0.000914037500000000
0.000939809700000000
0.000967393600000000
0.000995997600000000
0.00102393000000000
0.00104867200000000
0.00106694300000000
0.00107496300000000
0.00106873600000000
0.00104434400000000
0.000998342900000000
0.000928610200000000
0.000834594900000000
0.000716452700000000
0.000574202300000000
0.000408732100000000
0.000222476800000000
1.95788100000000e-05
-0.000194703100000000
-0.000414035200000000
-0.000631836400000000
-0.000842765700000000
-0.00104480200000000
-0.00123904000000000
-0.00142776100000000
-0.00161391600000000
-0.00180222400000000
-0.00199884900000000
-0.00220972400000000
-0.00243982400000000
-0.00269284000000000
-0.00297048900000000
-0.00327223500000000
-0.00359423200000000
-0.00392778400000000
-0.00425715400000000
-0.00455699500000000
-0.00479403400000000
-0.00493063500000000
-0.00493033900000000
-0.00476542100000000
-0.00442465800000000
-0.00391955600000000
-0.00328768400000000
-0.00258349900000000
-0.00185275900000000
-0.00113268900000000
-0.000447657800000000
0.000192304800000000
0.000784448600000000
0.00132036100000000
0.00178629200000000
0.00216900400000000
0.00245921400000000
0.00265379600000000
0.00275769200000000
0.00278409500000000
0.00274598900000000
0.00265443000000000
0.00252282000000000
0.00236422800000000
0.00218510300000000
0.00198900300000000
0.00177991700000000
0.00156368400000000
0.00134930100000000
0.00114935700000000
0.000979184700000000
0.000854644500000000
0.000788924400000000
0.000788713200000000
0.000850653600000000
0.000958295400000000
0.00108255400000000
0.00118801900000000
0.00123692200000000
0.00119224400000000
0.00102674200000000
0.000727190000000000
0.000296348500000000
-0.000252901900000000
-0.000915310400000000
-0.00169035100000000
-0.00257287300000000
-0.00355005100000000
-0.00460443600000000
-0.00571586600000000
-0.00685490700000000
-0.00797954500000000
-0.00904031800000000
-0.00999454800000000
-0.0108064400000000
-0.0114479700000000
-0.0119008300000000
-0.0121509100000000
-0.0121803400000000
-0.0119782400000000
-0.0115453000000000
-0.0108809900000000
-0.00997728900000000
-0.00883546300000000
-0.00747417500000000
-0.00592304100000000
-0.00423509200000000
-0.00248699300000000
-0.000757297600000000
0.000882885400000000
0.00236865900000000
0.00365087800000000
0.00470175100000000
0.00551748200000000
0.00611101900000000
0.00649989300000000
0.00671049300000000
0.00676750600000000
0.00668432500000000
0.00647605500000000
0.00616522600000000
0.00577655100000000
0.00533733800000000
0.00488250100000000
0.00444929400000000
0.00405971300000000
0.00371802100000000
0.00341295700000000
0.00311833800000000
0.00279690500000000
0.00241132600000000
0.00193448000000000
0.00135143900000000
0.000662000100000000
-0.000118287700000000
-0.000964633500000000
-0.00184771000000000
-0.00272971500000000
-0.00356434700000000
-0.00430296000000000
-0.00490034000000000
-0.00532037700000000
-0.00554669800000000
-0.00559643000000000
-0.00551737400000000
-0.00536444000000000
-0.00516871900000000
-0.00494697600000000
-0.00471020000000000
-0.00446532900000000
-0.00421637400000000
-0.00396419700000000
-0.00370906300000000
-0.00345237300000000
-0.00319768400000000
-0.00295008500000000
-0.00271401100000000
-0.00249166400000000
-0.00228272900000000
-0.00208370500000000
-0.00188790900000000
-0.00168749500000000
-0.00147839600000000
-0.00125999400000000
-0.00103501000000000
-0.000809870600000000
-0.000594877300000000
-0.000403465500000000
-0.000250844400000000
-0.000151304100000000
-0.000115449000000000
-0.000147136200000000
-0.000241193300000000
-0.000384247300000000
-0.000557465600000000
-0.000733411700000000
-0.000875042300000000
-0.000939536200000000
-0.000887310600000000
-0.000687376400000000
-0.000322204000000000
0.000207475400000000
0.000882735200000000
0.00167098800000000
0.00252575700000000
0.00340106600000000
0.00426392200000000
0.00508835300000000
0.00585097200000000
0.00652911800000000
0.00710123300000000
0.00755022500000000
0.00786423300000000
0.00803461900000000
0.00806339100000000
0.00796967600000000
0.00779204300000000
0.00757605000000000
0.00734373000000000
0.00710131000000000
0.00684764100000000
0.00657793800000000
0.00629005500000000
0.00598763000000000
0.00568056500000000
0.00538340600000000
0.00510877000000000
0.00485834800000000
0.00462476400000000
0.00439666900000000
0.00416882200000000
0.00394526200000000
0.00373535600000000
0.00354855900000000
0.00338913500000000
0.00325464100000000
0.00313511200000000
0.00301204600000000
0.00285914800000000
0.00264484700000000
0.00233603800000000
0.00190328900000000
0.00132966300000000
0.000621823700000000
-0.000185362800000000
-0.00102887300000000
-0.00182921200000000
-0.00252627600000000
-0.00310667500000000
-0.00358518200000000
-0.00397359900000000
-0.00428638800000000
-0.00454121500000000
-0.00474823600000000
-0.00491062300000000
-0.00502840200000000
-0.00510048100000000
-0.00512603900000000
-0.00510176600000000
-0.00501412700000000
-0.00484494100000000
-0.00457743200000000
-0.00419952000000000
-0.00370222400000000
-0.00307640800000000
-0.00232191400000000
-0.00145588500000000
-0.000515284500000000
0.000448072400000000
0.00137364900000000
0.00219210400000000
0.00283427100000000
0.00325032700000000
0.00341893400000000
0.00334837300000000
0.00306766900000000
0.00262007200000000
0.00207210500000000
0.00150616300000000
0.000990506500000000
0.000576180400000000
0.000300882900000000
0.000187420100000000
0.000242605500000000
0.000453243400000000
0.000782413400000000
0.00117188300000000
0.00156238400000000
0.00192115000000000
0.00223637100000000
0.00251151800000000
0.00276307000000000
0.00301245600000000
0.00327622800000000
0.00356503300000000
0.00388281300000000
0.00422500300000000
0.00457914300000000
0.00492925000000000
0.00525977200000000
0.00555442700000000
0.00579466300000000
0.00595610700000000
0.00600729500000000
0.00591526400000000
0.00565004300000000
0.00518656100000000
0.00451078700000000
0.00362944000000000
0.00257076400000000
0.00137300900000000
8.81023500000000e-05
-0.00121559200000000
-0.00247211000000000
-0.00364420600000000
-0.00471234400000000
-0.00565612900000000
-0.00645179600000000
-0.00707863000000000
-0.00752372800000000
-0.00778427100000000
-0.00787122700000000
-0.00780117900000000
-0.00758238400000000
-0.00722384700000000
-0.00673552200000000
-0.00612147100000000
-0.00539070100000000
-0.00456576400000000
-0.00368154400000000
-0.00277296400000000
-0.00187038600000000
-0.00100363300000000
-0.000198143300000000
0.000535201800000000
0.00119944400000000
0.00180598000000000
0.00236343300000000
0.00287357500000000
0.00333526400000000
0.00374331500000000
0.00408281400000000
0.00433255800000000
0.00447260300000000
0.00449118500000000
0.00439187200000000
0.00419860200000000
0.00395432200000000
0.00370603600000000
0.00349230200000000
0.00334698300000000
0.00330064000000000
0.00338031800000000
0.00360891200000000
0.00399765800000000
0.00453894800000000
0.00520475500000000
0.00595256300000000
0.00672644000000000
0.00747036800000000
0.00813442500000000
0.00867238300000000
0.00904295400000000
0.00921295600000000
0.00916339200000000
0.00889271300000000
0.00841224400000000
0.00775120300000000
0.00695043100000000
0.00603596700000000
0.00503209100000000
0.00397302200000000
0.00290312600000000
0.00186928000000000
0.000920357100000000
0.000106585000000000
-0.000528181400000000
-0.000961444300000000
-0.00120413200000000
-0.00129128500000000
-0.00125489600000000
-0.00112690600000000
-0.000948874200000000
-0.000768200300000000
-0.000621801200000000
-0.000535097800000000
-0.000525231300000000
-0.000600973300000000
-0.000763595100000000
-0.00101098000000000
-0.00133716500000000
-0.00172842200000000
-0.00216251000000000
-0.00261653400000000
-0.00307802300000000
-0.00353988700000000
-0.00399543200000000
-0.00443528400000000
-0.00484308500000000
-0.00519556800000000
-0.00546463700000000
-0.00562084800000000
-0.00563800700000000
-0.00549935500000000
-0.00520390600000000
-0.00477112700000000
-0.00423442400000000
-0.00361876700000000
-0.00294289900000000
-0.00222778600000000
-0.00149859700000000
-0.000779458900000000
-8.52447900000000e-05
0.000575554100000000
0.00119831900000000
0.00178143600000000
0.00232351800000000
0.00281692600000000
0.00324355700000000
0.00357895100000000
0.00379625900000000
0.00386882800000000
0.00377462100000000
0.00350374400000000
0.00306100800000000
0.00245617900000000
0.00169862000000000
0.000810090700000000
-0.000166298500000000
-0.00116587800000000
-0.00211719700000000
-0.00296478700000000
-0.00366653800000000
-0.00419119100000000
-0.00451521100000000
-0.00462327900000000
-0.00451938000000000
-0.00423439400000000
-0.00382550700000000
-0.00336474100000000
-0.00291364200000000
-0.00251363600000000
-0.00219156900000000
-0.00195977500000000
-0.00181346800000000
-0.00173094200000000
-0.00167847500000000
-0.00162492300000000
-0.00155350400000000
-0.00145900000000000
-0.00134554000000000
-0.00122487500000000
-0.00111131300000000
-0.00101516800000000
-0.000941722600000000
-0.000890409600000000
-0.000853953400000000
-0.000820335100000000
-0.000778484600000000
-0.000719363900000000
-0.000636035100000000
-0.000524552500000000
-0.000384786100000000
-0.000219254100000000
-2.92166800000000e-05
0.000184847200000000
0.000421416400000000
0.000677313800000000
0.000948169300000000
0.00123144000000000
0.00152830700000000
0.00184171500000000
0.00217430700000000
0.00252680400000000
0.00289626900000000
0.00327503600000000
0.00365092300000000
0.00400858400000000
0.00432908900000000
0.00459047700000000
0.00476944500000000
0.00484285800000000
0.00478756600000000
0.00458247100000000
0.00421651200000000
0.00369539200000000
0.00304396500000000
0.00229559000000000
0.00147574000000000
0.000610093100000000
-0.000271630600000000
-0.00114266500000000
-0.00198065800000000
-0.00276527800000000
-0.00347652000000000
-0.00409390200000000
-0.00459900900000000
-0.00497984700000000
-0.00523231300000000
-0.00535720400000000
-0.00536229500000000
-0.00526863800000000
-0.00510829900000000
-0.00490922400000000
-0.00469084600000000
-0.00447023100000000
-0.00426469900000000
-0.00409135900000000
-0.00396359200000000
-0.00388597100000000
-0.00385322600000000
-0.00384963700000000
-0.00385037800000000
-0.00382821300000000
-0.00375953000000000
-0.00362404000000000
-0.00340577100000000
-0.00309480900000000
-0.00268673800000000
-0.00218111000000000
-0.00158636500000000
-0.000922999200000000
-0.000220862300000000
0.000495104500000000
0.00121521600000000
0.00193932000000000
0.00267006000000000
0.00340592900000000
0.00413895800000000
0.00485510800000000
0.00553518300000000
0.00615957000000000
0.00671445400000000
0.00719296800000000
0.00759569200000000
0.00792588300000000
0.00817681500000000
0.00833780800000000
0.00840052800000000
0.00836036300000000
0.00821363800000000
0.00795916500000000
0.00760310600000000
0.00715658100000000
0.00663015100000000
0.00603981900000000
0.00541113400000000
0.00477563700000000
0.00415737100000000
0.00356170500000000
0.00297967000000000
0.00239271800000000
0.00178146100000000
0.00113661200000000
0.000459384700000000
-0.000239330400000000
-0.000941609500000000
-0.00163076200000000
-0.00229005900000000
-0.00290238400000000
-0.00345019400000000
-0.00391471600000000
-0.00427969500000000
-0.00453573300000000
-0.00468022200000000
-0.00471306000000000
-0.00464278800000000
-0.00449160500000000
-0.00429301500000000
-0.00407843700000000
-0.00386625400000000
-0.00366647200000000
-0.00348358000000000
-0.00331718700000000
-0.00316279100000000
-0.00301314200000000
-0.00286107800000000
-0.00270197300000000
-0.00253419800000000
-0.00235961000000000
-0.00218409200000000
-0.00201806100000000
-0.00187685600000000
-0.00177904500000000
-0.00174381100000000
-0.00178775100000000
-0.00192145500000000
-0.00214733800000000
-0.00245842900000000
-0.00283450000000000
-0.00324313300000000
-0.00364952300000000
-0.00402032000000000
-0.00432192800000000
-0.00452167900000000
-0.00459064200000000
-0.00450687300000000
-0.00426193800000000
-0.00386697900000000
-0.00335586600000000
-0.00277755000000000
-0.00217000200000000
-0.00155132900000000
-0.000927209000000000
-0.000295500700000000
0.000350716000000000
0.00101878700000000
0.00171426000000000
0.00243849300000000
0.00318704900000000
0.00395029600000000
0.00471973900000000
0.00549212200000000
0.00626588200000000
0.00703483800000000
0.00777821500000000
0.00845778500000000
0.00902357200000000
0.00942199100000000
0.00961015900000000
0.00957290800000000
0.00932820000000000
0.00892537700000000
0.00842176400000000
0.00784924600000000
0.00722596600000000
0.00656640600000000
0.00588352500000000
0.00518810200000000
0.00448305800000000
0.00376711300000000
0.00303773900000000
0.00229167800000000
0.00152304600000000
0.000725418300000000
-0.000105478200000000
-0.000968507400000000
-0.00185319300000000
-0.00273571100000000
-0.00358011300000000
-0.00434177700000000
-0.00497577200000000
-0.00545372300000000
-0.00577723900000000
-0.00597394900000000
-0.00607708300000000
-0.00609921700000000
-0.00604197400000000
-0.00590427200000000
-0.00568367000000000
-0.00538044500000000
-0.00500255100000000
-0.00456824200000000
-0.00410119900000000
-0.00362217700000000
-0.00315206800000000
-0.00271153500000000
-0.00231433400000000
-0.00196565500000000
-0.00166158500000000
-0.00138889100000000
-0.00112766900000000
-0.000860844600000000
-0.000581657100000000
-0.000291660300000000
1.51379600000000e-06
0.000287227400000000
0.000556480100000000
0.000802191100000000
0.00101989200000000
0.00120865800000000
0.00137035800000000
0.00150614800000000
0.00161737700000000
0.00170750500000000
0.00178312600000000
0.00185345400000000
0.00192785200000000
0.00201467700000000
0.00212158300000000
0.00225496000000000
0.00241903300000000
0.00261470800000000
0.00283993300000000
0.00309155200000000
0.00336313700000000
0.00364300400000000
0.00391402400000000
0.00415533300000000
0.00434467500000000
0.00445976100000000
0.00448086000000000
0.00439416000000000
0.00419438400000000
0.00388635300000000
0.00348662600000000
0.00301594400000000
0.00248719200000000
0.00191249300000000
0.00130873600000000
0.000699297400000000
0.000111239600000000
-0.000433437800000000
-0.000919546500000000
-0.00133840900000000
-0.00168907900000000
-0.00197691400000000
-0.00220759700000000
-0.00238628500000000
-0.00252215900000000
-0.00263076800000000
-0.00273434900000000
-0.00285557000000000
-0.00300399100000000
-0.00317770500000000
-0.00336638200000000
-0.00355512200000000
-0.00373028400000000
-0.00387860200000000
-0.00398706200000000
-0.00404374400000000
-0.00403871500000000
-0.00396250100000000
-0.00380148800000000
-0.00354214400000000
-0.00317496900000000
-0.00269396400000000
-0.00209502500000000
-0.00138358000000000
-0.000580735100000000
0.000275491000000000
0.00114025600000000
0.00197727400000000
0.00275575300000000
0.00345062900000000
0.00404933400000000
0.00455292200000000
0.00497177700000000
0.00531119700000000
0.00556199700000000
0.00570853900000000
0.00573721200000000
0.00564323500000000
0.00543549400000000
0.00513275100000000
0.00474854100000000
0.00429458600000000
0.00378909700000000
0.00326006400000000
0.00274379500000000
0.00227541100000000
0.00187977200000000
0.00157038000000000
0.00134528600000000
0.00118014500000000
0.00103577600000000
0.000882079200000000
0.000707364400000000
0.000513495100000000
0.000311775600000000
0.000115245300000000
-7.13842800000000e-05
-0.000250517500000000
-0.000430136900000000
-0.000619578400000000
-0.000820748500000000
-0.00102900800000000
-0.00123479200000000
-0.00142498200000000
-0.00158803000000000
-0.00172034200000000
-0.00182636400000000
-0.00191789000000000
-0.00201240800000000
-0.00212720600000000
-0.00227414300000000
-0.00245892000000000
-0.00267991500000000
-0.00292652300000000
-0.00317875600000000
-0.00340880000000000
-0.00358298300000000
-0.00366774000000000
-0.00364237900000000
-0.00350903800000000
-0.00328707500000000
-0.00299714800000000
-0.00265652900000000
-0.00228396900000000
-0.00189797400000000
-0.00150871600000000
-0.00112033900000000
-0.000733578600000000
-0.000346664500000000
4.35438700000000e-05
0.000441279800000000
0.000850556800000000
0.00127361100000000
0.00170926900000000
0.00215175000000000
0.00258926800000000
0.00300275200000000
0.00336634000000000
0.00365026700000000
0.00382485600000000
0.00386593100000000
0.00376105000000000
0.00351567200000000
0.00315724100000000
0.00273159800000000
0.00228326000000000
0.00183969500000000
0.00141745400000000
0.00102608300000000
0.000669111000000000
0.000345912000000000
5.33834300000000e-05
-0.000213271200000000
-0.000456613500000000
-0.000668784200000000
-0.000832206700000000
-0.000924001100000000
-0.000920666000000000
-0.000803855200000000
-0.000567173300000000
-0.000221471400000000
0.000201970100000000
0.000659538100000000
0.00111690800000000
0.00154488500000000
0.00191610500000000
0.00220748800000000
0.00240353700000000
0.00250096200000000
0.00251186600000000
0.00246550300000000
0.00240392600000000
0.00236580600000000
0.00237285100000000
0.00243303000000000
0.00254286100000000
0.00269228000000000
0.00287550200000000
0.00308861200000000
0.00332777300000000
0.00359053600000000
0.00387421100000000
0.00417355900000000
0.00447884700000000
0.00477459200000000
0.00503979700000000
0.00525072000000000
0.00538440400000000
0.00542064200000000
0.00534495900000000
0.00514948900000000
0.00483075400000000
0.00439558500000000
0.00386569900000000
0.00327182400000000
0.00263421300000000
0.00195679500000000
0.00123597800000000
0.000467512800000000
-0.000345640100000000
-0.00118761000000000
-0.00202918100000000
-0.00283409200000000
-0.00357452600000000
-0.00423813700000000
-0.00482533100000000
-0.00534128500000000
-0.00577970900000000
-0.00612878900000000
-0.00637698800000000
-0.00651411700000000
-0.00653378800000000
-0.00643908500000000
-0.00624514800000000
-0.00597152400000000
-0.00563033400000000
-0.00523384400000000
-0.00480048400000000
-0.00435605800000000
-0.00392868800000000
-0.00353586500000000
-0.00318587200000000
-0.00287924000000000
-0.00260850200000000
-0.00236181700000000
-0.00213112800000000
-0.00191021900000000
-0.00169297100000000
-0.00147378100000000
-0.00124931800000000
-0.00101988900000000
-0.000788638000000000
-0.000560746800000000
-0.000342761700000000
-0.000141538300000000
3.70975400000000e-05
0.000190193700000000
0.000318835700000000
0.000429201000000000
0.000532966300000000
0.000646823800000000
0.000788887300000000
0.000971951700000000
0.00120217600000000
0.00147806900000000
0.00178911400000000
0.00211766200000000
0.00244578000000000
0.00275808000000000
0.00304043000000000
0.00328004400000000
0.00346606000000000
0.00358886300000000
0.00363926200000000
0.00361204800000000
0.00350965700000000
0.00334423600000000
0.00313704000000000
0.00290915300000000
0.00266889500000000
0.00241580400000000
0.00214471600000000
0.00184764800000000
0.00151691900000000
0.00114781700000000
0.000740692800000000
0.000301923400000000
-0.000157002100000000
-0.000625628500000000
-0.00109919500000000
-0.00157696500000000
-0.00206057200000000
-0.00255301400000000
-0.00305685200000000
-0.00357391100000000
-0.00410486600000000
-0.00464991700000000
-0.00520741800000000
-0.00577237300000000
-0.00633516000000000
-0.00688105700000000
-0.00739022000000000
-0.00783891600000000
-0.00820099600000000
-0.00845006000000000
-0.00856392100000000
-0.00853010500000000
-0.00834872800000000
-0.00802957200000000
-0.00758989600000000
-0.00705922600000000
-0.00647160100000000
-0.00584220000000000
-0.00517482400000000
-0.00446953400000000
-0.00372572600000000
-0.00294333100000000
-0.00212111800000000
-0.00126128200000000
-0.000373907100000000
0.000520795800000000
0.00139267900000000
0.00220592300000000
0.00292128400000000
0.00349929600000000
0.00390421000000000
0.00410694200000000
0.00409014600000000
0.00385929100000000
0.00345041100000000
0.00292897300000000
0.00236490800000000
0.00179709300000000
0.00124360700000000
0.000710954100000000
0.000199280700000000
-0.000288563000000000
-0.000747084500000000
-0.00116861200000000
-0.00154335600000000
-0.00185968600000000
-0.00210435300000000
-0.00226580700000000
-0.00233727200000000
-0.00231690400000000
-0.00220625900000000
-0.00201449300000000
-0.00175521700000000
-0.00143354700000000
-0.00105254200000000
-0.000619194000000000
-0.000144804800000000
0.000359316200000000
0.000881955900000000
0.00140801300000000
0.00191621000000000
0.00237859500000000
0.00276103800000000
0.00302518000000000
0.00313412500000000
0.00306034900000000
0.00279547200000000
0.00236052800000000
0.00180022600000000
0.00115812800000000
0.000469471700000000
-0.000230818800000000
-0.000908903100000000
-0.00153800400000000
-0.00209662300000000
-0.00256755900000000
-0.00293743800000000
-0.00319602900000000
-0.00333948900000000
-0.00336920000000000
-0.00328355700000000
-0.00308184800000000
-0.00277033300000000
-0.00235963300000000
-0.00185919700000000
-0.00128486100000000
-0.000664397400000000
-3.27560400000000e-05
0.000584211500000000
0.00117480300000000
0.00172977700000000
0.00222760500000000
0.00263828700000000
0.00293001800000000
0.00307602900000000
0.00306560500000000
0.00291095200000000
0.00264935900000000
0.00232956000000000
0.00197930900000000
0.00161326000000000
0.00124118000000000
0.000869309400000000
0.000501593400000000
0.000140244500000000
-0.000212897200000000
-0.000555577300000000
-0.000884707200000000
-0.00119610600000000
-0.00148424700000000
-0.00174333500000000
-0.00196925400000000
-0.00216113600000000
-0.00232259800000000
-0.00246004100000000
-0.00257738400000000
-0.00267815000000000
-0.00276726400000000
-0.00285080200000000
-0.00293385800000000
-0.00301732300000000
-0.00309862100000000
-0.00317245500000000
-0.00323133700000000
-0.00326668100000000
-0.00327051500000000
-0.00323707600000000
-0.00316431500000000
-0.00305522200000000
-0.00291787700000000
-0.00276166300000000
-0.00259178700000000
-0.00241158900000000
-0.00222453200000000
-0.00203497500000000
-0.00184848900000000
-0.00167142200000000
-0.00151028200000000
-0.00137155100000000
-0.00126106400000000
-0.00118312700000000
-0.00114045600000000
-0.00113552700000000
-0.00116786200000000
-0.00123169200000000
-0.00131470100000000
-0.00140013000000000
-0.00147282400000000
-0.00151835000000000
-0.00152243300000000
-0.00147230200000000
-0.00135698200000000
-0.00116686800000000
-0.000897667800000000
-0.000554878800000000
-0.000156267700000000
0.000267314500000000
0.000680381400000000
0.00106156000000000
0.00140128300000000
0.00169849900000000
0.00195779100000000
0.00218132400000000
0.00236943800000000
0.00252333200000000
0.00264680800000000
0.00274718300000000
0.00283566400000000
0.00292435200000000
0.00301963400000000
0.00312281700000000
0.00323086200000000
0.00333576800000000
0.00342413900000000
0.00347608400000000
0.00346475600000000
0.00335977400000000
0.00313210700000000
0.00275992600000000
0.00223500500000000
0.00156830000000000
0.000789950900000000
-6.28862600000000e-05
-0.000955933000000000
-0.00185163100000000
-0.00270968000000000
-0.00349659300000000
-0.00418768900000000
-0.00476713800000000
-0.00522712500000000
-0.00556342900000000
-0.00577865900000000
-0.00588667400000000
-0.00590802900000000
-0.00585426600000000
-0.00573016300000000
-0.00554114600000000
-0.00529408000000000
-0.00499279400000000
-0.00464101800000000
-0.00424742800000000
-0.00382761700000000
-0.00340229400000000
-0.00298783000000000
-0.00258872000000000
-0.00219942100000000
-0.00180643800000000
-0.00139055800000000
-0.000933568500000000
-0.000424110200000000
0.000140748100000000
0.000754283600000000
0.00140048200000000
0.00205931200000000
0.00270846700000000
0.00332279400000000
0.00387649600000000
0.00434890400000000
0.00472766800000000
0.00501101900000000
0.00520918400000000
0.00533922900000000
0.00541019000000000
0.00542413600000000
0.00538167300000000
0.00528453800000000
0.00513533200000000
0.00493149400000000
0.00466194700000000
0.00431324700000000
0.00387541200000000
0.00334470700000000
0.00272400800000000
0.00202855200000000
0.00128982700000000
0.000555217600000000
-0.000124515200000000
-0.000721921500000000
-0.00122983600000000
-0.00165264000000000
-0.00199175800000000
-0.00224193600000000
-0.00239854000000000
-0.00246259600000000
-0.00244249200000000
-0.00235184900000000
-0.00221173100000000
-0.00205030700000000
-0.00189318300000000
-0.00175524000000000
-0.00164347500000000
-0.00155849000000000
-0.00149452200000000
-0.00144027800000000
-0.00138233200000000
-0.00130970400000000
-0.00121385300000000
-0.00108887400000000
-0.000932611900000000
-0.000747456300000000
-0.000540850900000000
-0.000323864800000000
-0.000107013700000000
0.000101728800000000
0.000296372600000000
0.000473180200000000
0.000631215200000000
0.000772937200000000
0.000904389300000000
0.00103445800000000
0.00117234300000000
0.00132629300000000
0.00150320400000000
0.00170781200000000
0.00194163900000000
0.00220220700000000
0.00248382100000000
0.00278057200000000
0.00308491200000000
0.00338664300000000
0.00367302600000000
0.00392984500000000
0.00414423700000000
0.00430849300000000
0.00442149800000000
0.00448979300000000
0.00452797200000000
0.00455436100000000
0.00458053100000000
0.00461004900000000
0.00464016300000000
0.00466203800000000
0.00466134600000000
0.00461933900000000
0.00451501200000000
0.00432776900000000
0.00404076100000000
0.00364241400000000
0.00312439500000000
0.00248440900000000
0.00173301800000000
0.000897517400000000
1.67843800000000e-05
-0.000876850900000000
-0.00175729000000000
-0.00260014100000000
-0.00338254600000000
-0.00408548600000000
-0.00469494700000000
-0.00520335300000000
-0.00560757500000000
-0.00590192200000000
-0.00608077300000000
-0.00614270800000000
-0.00608623100000000
-0.00590271100000000
-0.00558565900000000
-0.00513718600000000
-0.00456808500000000
-0.00390301900000000
-0.00318461400000000
-0.00246309700000000
-0.00177018400000000
-0.00112350700000000
-0.000531583900000000
4.74008000000000e-06
0.000485735000000000
0.000909067400000000
0.00127284900000000
0.00157837000000000
0.00182853900000000
0.00202284800000000
0.00216140500000000
0.00224886000000000
0.00229492300000000
0.00230949400000000
0.00229505000000000
0.00225082300000000
0.00217656400000000
0.00207429500000000
0.00194955100000000
0.00180994800000000
0.00166036000000000
0.00150316700000000
0.00134008300000000
0.00117290500000000
0.00100421100000000
0.000837978400000000
0.000679553000000000
0.000535055900000000
0.000410650800000000
0.000311145100000000
0.000238362400000000
0.000188868400000000
0.000152603900000000
0.000112859800000000
4.75793500000000e-05
-6.55080500000000e-05
-0.000239188300000000
-0.000475090700000000
-0.000762363200000000
-0.00107670400000000
-0.00138374700000000
-0.00165092400000000
-0.00185786100000000
-0.00199641400000000
-0.00207097500000000
-0.00209825200000000
-0.00209967300000000
-0.00209082200000000
-0.00208417400000000
-0.00209131800000000
-0.00212272800000000
-0.00218814200000000
-0.00229727900000000
-0.00245827300000000
-0.00267480100000000
-0.00294353700000000
-0.00325188200000000
-0.00357798300000000
-0.00389435300000000
-0.00416984600000000
-0.00437012200000000
-0.00446084700000000
-0.00441366100000000
-0.00421560400000000
-0.00387709800000000
-0.00343413600000000
-0.00293844300000000
-0.00243096300000000
-0.00194046900000000
-0.00148897900000000
-0.00109171600000000
-0.000755152200000000
-0.000475397900000000
-0.000238195500000000
-2.02010300000000e-05
0.000203377700000000
0.000442639000000000
0.000691295300000000
0.000930370200000000
0.00113214300000000
0.00126918200000000
0.00132576000000000
0.00130084500000000
0.00120992200000000
0.00108453800000000
0.000961767000000000
0.000868937100000000
0.000825090600000000
0.000841385300000000
0.000918694900000000
0.00104625300000000
0.00120398500000000
0.00137166500000000
0.00153237700000000
0.00167057100000000
0.00177172600000000
0.00182321100000000
0.00181443800000000
0.00173603300000000
0.00158307000000000
0.00135829000000000
0.00107393100000000
0.000748739100000000
0.000397777300000000
3.33257100000000e-05
-0.000331347000000000
-0.000680698600000000
-0.000996996200000000
-0.00126273300000000
-0.00146566800000000
-0.00160020500000000
-0.00166858300000000
-0.00168027000000000
-0.00164662100000000
-0.00157924700000000
-0.00148925700000000
-0.00138101500000000
-0.00125295800000000
-0.00110091200000000
-0.000920300200000000
-0.000708317700000000
-0.000465656300000000
-0.000197337600000000
8.96754000000000e-05
0.000390239500000000
0.000698940600000000
0.00100838500000000
0.00130884400000000
0.00158827600000000
0.00183310100000000
0.00202964600000000
0.00216646600000000
0.00223656100000000
0.00223930600000000
0.00218026700000000
0.00206603600000000
0.00190058800000000
0.00168880000000000
0.00143693500000000
0.00114777300000000
0.000820412600000000
0.000454070400000000
5.10172100000000e-05
-0.000382296200000000
-0.000837328900000000
-0.00130731200000000
-0.00178472700000000
-0.00225962100000000
-0.00271939200000000
-0.00314997300000000
-0.00353867400000000
-0.00387722700000000
-0.00416307400000000
-0.00440042600000000
-0.00459905300000000
-0.00476790100000000
-0.00491018400000000
-0.00502606300000000
-0.00511434600000000
-0.00517126100000000
-0.00518712500000000
-0.00514923400000000
-0.00504548300000000
-0.00486704800000000
-0.00461029700000000
-0.00427410400000000
-0.00385574200000000
-0.00335683400000000
-0.00278858500000000
-0.00217381100000000
-0.00154256200000000
-0.000918143300000000
-0.000316878700000000
0.000248708200000000
0.000768196300000000
0.00123053300000000
0.00162282700000000
0.00193338900000000
0.00215451800000000
0.00228220000000000
0.00231134300000000
0.00223998900000000
0.00207532700000000
0.00183692500000000
0.00155090500000000
0.00123331100000000
0.000895781700000000
0.000550837800000000
0.000212795900000000
-0.000103549000000000
-0.000387432500000000
-0.000632104000000000
-0.000835108300000000
-0.000999113600000000
-0.00113098900000000
-0.00123699400000000
-0.00131936600000000
-0.00137919400000000
-0.00141865700000000
-0.00144206600000000
-0.00145534500000000
-0.00146285400000000
-0.00146655800000000
-0.00146746400000000
-0.00146642600000000
-0.00146446200000000
-0.00146291000000000
-0.00146339100000000
-0.00146762800000000
-0.00147711300000000
-0.00149266700000000
-0.00151396100000000
-0.00153907000000000
-0.00156417100000000
-0.00158349700000000
-0.00158963400000000
-0.00157426000000000
-0.00152933500000000
-0.00144872400000000
-0.00133010300000000
-0.00117695400000000
-0.00100018000000000
-0.000818796300000000
-0.000658914800000000
-0.000547706100000000
-0.000500817400000000
-0.000519291600000000
-0.000590330700000000
-0.000691562600000000
-0.000803491000000000
-0.000914282300000000
-0.00101710800000000
-0.00110909400000000
-0.00119114700000000
-0.00126703800000000
-0.00134128600000000
-0.00141795000000000
-0.00150036600000000
-0.00159065600000000
-0.00168918300000000
-0.00179420000000000
-0.00190219800000000
-0.00200915600000000
-0.00211075800000000
-0.00220239700000000
-0.00227957200000000
-0.00233834200000000
-0.00237576400000000
-0.00238906600000000
-0.00237305400000000
-0.00232139600000000
-0.00222934000000000
-0.00209614200000000
-0.00192725100000000
-0.00173597700000000
-0.00154388100000000
-0.00137745600000000
-0.00125975500000000
-0.00120747900000000
-0.00122918300000000
-0.00132246600000000
-0.00147175800000000
-0.00165037600000000
-0.00182969500000000
-0.00198303400000000
-0.00208442400000000
-0.00210983400000000
-0.00204006200000000
-0.00186383400000000
-0.00157989800000000
-0.00120224500000000
-0.000763506100000000
-0.000315029900000000
8.46110600000000e-05
0.000396071500000000
0.000604037600000000
0.000714151200000000
0.000748644700000000
0.000730684400000000
0.000672693000000000
0.000581490900000000
0.000462306700000000
0.000320070100000000
0.000160668700000000
-1.05937400000000e-05
-0.000193157200000000
-0.000388792700000000
-0.000599027300000000
-0.000824024900000000
-0.00106291600000000
-0.00131622000000000
-0.00158401300000000
-0.00186416700000000
-0.00215129000000000
-0.00243592600000000
-0.00270414600000000
-0.00293756000000000
-0.00311435200000000
-0.00321181500000000
-0.00320971000000000
-0.00309367100000000
-0.00285678000000000
-0.00250224300000000
-0.00204824400000000
-0.00152733400000000
-0.000973628600000000
-0.000412861400000000
0.000132567200000000
0.000640626400000000
0.00109051600000000
0.00146445100000000
0.00175043000000000
0.00194514700000000
0.00205669600000000
0.00210574200000000
0.00211839200000000
0.00210861700000000
0.00208316900000000
0.00204652000000000
0.00200240000000000
0.00195523400000000
0.00191056400000000
0.00187372500000000
0.00184750400000000
0.00183265600000000
0.00182827400000000
0.00183166300000000
0.00183942100000000
0.00184987300000000
0.00186226200000000
0.00187583900000000
0.00188959400000000
0.00190215400000000
0.00191226200000000
0.00191881400000000
0.00192061200000000
0.00191618800000000
0.00190347000000000
0.00187913200000000
0.00183907800000000
0.00177902700000000
0.00169501000000000
0.00158289000000000
0.00143661500000000
0.00125042900000000
0.00102117100000000
0.000749510200000000
0.000438648900000000
9.19839300000000e-05
-0.000283689000000000
-0.000675569400000000
-0.00106471300000000
-0.00142866100000000
-0.00174460800000000
-0.00199038300000000
-0.00214678300000000
-0.00220021200000000
-0.00214451900000000
-0.00198521000000000
-0.00174303400000000
-0.00145072800000000
-0.00113879900000000
-0.000830487700000000
-0.000545450100000000
-0.000300556000000000
-0.000107756200000000
2.94506800000000e-05
0.000118104300000000
0.000176595800000000
0.000234395000000000
0.000327182600000000
0.000485121800000000
0.000725974900000000
0.00105387900000000
0.00145748600000000
0.00191111400000000
0.00238353100000000
0.00284552300000000
0.00326789300000000
0.00362181100000000
0.00388292800000000
0.00403785100000000
0.00408621800000000
0.00403874600000000
0.00390842500000000
0.00370899600000000
0.00345967500000000
0.00318661600000000
0.00291560600000000
0.00265536600000000
0.00240126900000000
0.00214016900000000
0.00185510100000000
0.00153397400000000
0.00117246600000000
0.000774800800000000
0.000352443200000000
-8.15523800000000e-05
-0.000512401100000000
-0.000922543600000000
-0.00129258200000000
-0.00160362200000000
-0.00184011100000000
-0.00199276700000000
-0.00206122300000000
-0.00205355300000000
-0.00197981600000000
-0.00185132500000000
-0.00168479100000000
-0.00150310800000000
-0.00132965600000000
-0.00117979700000000
-0.00106249300000000
-0.000981340600000000
-0.000934243000000000
-0.000914110700000000
-0.000912725600000000
-0.000925948700000000
-0.000951746100000000
-0.000988246700000000
-0.00103273900000000
-0.00108070900000000
-0.00112533100000000
-0.00115817500000000
-0.00117173200000000
-0.00116004900000000
-0.00111908600000000
-0.00104762200000000
-0.000948069300000000
-0.000826109200000000
-0.000686774300000000
-0.000529096700000000
-0.000348943600000000
-0.000141995300000000
9.39599700000000e-05
0.000356013400000000
0.000632479500000000
0.000902186000000000
0.00113641600000000
0.00130573200000000
0.00138932400000000
0.00137723900000000
0.00127222100000000
0.00109020000000000
0.000851877600000000
0.000570823700000000
0.000258585500000000
-7.11445600000000e-05
-0.000403436700000000
-0.000726574200000000
-0.00103348700000000
-0.00131960100000000
-0.00158147700000000
-0.00181419100000000
-0.00200696400000000
-0.00214511600000000
-0.00221303000000000
-0.00219685200000000
-0.00208659700000000
-0.00187612400000000
-0.00156746200000000
-0.00116908600000000
-0.000686296000000000
-0.000128252100000000
0.000485807700000000
0.00112512000000000
0.00175409900000000
0.00234965500000000
0.00289817100000000
0.00339248300000000
0.00382960800000000
0.00420338500000000
0.00449998700000000
0.00470326800000000
0.00480019800000000
0.00478591600000000
0.00466802500000000
0.00446896200000000
0.00421734500000000
0.00392606000000000
0.00359894900000000
0.00323782400000000
0.00284485600000000
0.00242477600000000
0.00198467500000000
0.00153035900000000
0.00106567800000000
0.000594567000000000
0.000121667700000000
-0.000348521700000000
-0.000811277800000000
-0.00126169500000000
-0.00169499100000000
-0.00210734700000000
-0.00249652900000000
-0.00286252500000000
-0.00320733200000000
-0.00353246000000000
-0.00383539600000000
-0.00411158000000000
-0.00435628000000000
-0.00456592700000000
-0.00473824700000000
-0.00487092700000000
-0.00496410200000000
-0.00502246200000000
-0.00505594300000000
-0.00507637000000000
-0.00508920100000000
-0.00509539700000000
-0.00509350500000000
-0.00508015900000000
-0.00505096200000000
-0.00500122500000000
-0.00492704600000000
-0.00482606300000000
-0.00469810700000000
-0.00454342600000000
-0.00435854700000000
-0.00413827500000000
-0.00387819100000000
-0.00357592800000000
-0.00323180300000000
-0.00284658800000000
-0.00242053800000000
-0.00195529300000000
-0.00145401400000000
-0.000921261300000000
-0.000366026500000000
0.000196687200000000
0.000746597800000000
0.00126342500000000
0.00173132300000000
0.00213866100000000
0.00247661500000000
0.00273531400000000
0.00290173200000000
0.00296450000000000
0.00291595700000000
0.00275295700000000
0.00248290200000000
0.00212837900000000
0.00172245700000000
0.00129271900000000
0.000861690200000000
0.000451371000000000
8.32880700000000e-05
-0.000224505600000000
-0.000462073900000000
-0.000629440100000000
-0.000738016600000000
-0.000811113300000000
-0.000877778300000000
-0.000957609600000000
-0.00105932500000000
-0.00118378200000000
-0.00132510700000000
-0.00147416600000000
-0.00162493500000000
-0.00177435600000000
-0.00192188200000000
-0.00206982800000000
-0.00222317900000000
-0.00238921900000000
-0.00257655000000000
-0.00279324000000000
-0.00304453200000000
-0.00333049400000000
-0.00364394000000000
-0.00396885100000000
-0.00427990200000000
-0.00454377300000000
-0.00472497400000000
-0.00479669700000000
-0.00474613700000000
-0.00457717300000000
-0.00431013900000000
-0.00397214000000000
-0.00358922200000000
-0.00318895300000000
-0.00279598000000000
-0.00242246400000000
-0.00207027400000000
-0.00173278900000000
-0.00139678100000000
-0.00104631800000000
-0.000665594400000000
-0.000240155500000000
0.000240752300000000
0.000782759800000000
0.00138535000000000
0.00203946200000000
0.00272515400000000
0.00341182900000000
0.00406438900000000
0.00465821300000000
0.00518142700000000
0.00563340300000000
0.00601922500000000
0.00633714200000000
0.00657963800000000
0.00673926700000000
0.00681159100000000
0.00679647200000000
0.00669910700000000
0.00653373100000000
0.00631962300000000
0.00606857000000000
0.00578965000000000
0.00549380200000000
0.00519423000000000
0.00490486100000000
0.00463241100000000
0.00436690400000000
0.00408527800000000
0.00376009200000000
0.00337313900000000
0.00291971400000000
0.00240888700000000
0.00186289700000000
0.00130876600000000
0.000766441500000000
0.000251854500000000
-0.000218921600000000
-0.000625645700000000
-0.000945878600000000
-0.00115975100000000
-0.00125356900000000
-0.00122264200000000
-0.00107710500000000
-0.000846209400000000
-0.000575736600000000
-0.000312787100000000
-9.25904200000000e-05
5.86379900000000e-05
0.000123426500000000
9.54703800000000e-05
-1.94287400000000e-05
-0.000206060200000000
-0.000439372100000000
-0.000682318600000000
-0.000888016200000000
-0.00101132700000000
-0.00102460200000000
-0.000918700700000000
-0.000703150800000000
-0.000403742600000000
-4.85382100000000e-05
0.000342584600000000
0.000753131000000000
0.00116697200000000
0.00157107500000000
0.00196134800000000
0.00234110000000000
0.00271829700000000
0.00310320200000000
0.00350323400000000
0.00391921800000000
0.00434528200000000
0.00477049100000000
0.00518286300000000
0.00557331900000000
0.00593542000000000
0.00626552700000000
0.00656231100000000
0.00682314100000000
0.00703914000000000
0.00719798700000000
0.00728676300000000
0.00729321300000000
0.00720477100000000
0.00700941400000000
0.00670126600000000
0.00628512500000000
0.00577363600000000
0.00517584900000000
0.00450459500000000
0.00378254200000000
0.00304214700000000
0.00231644500000000
0.00162568800000000
0.000980741800000000
0.000388243200000000
-0.000143870200000000
-0.000607156300000000
-0.000996060000000000
-0.00130903000000000
-0.00154571000000000
-0.00170255300000000
-0.00177848900000000
-0.00177971500000000
-0.00171928200000000
-0.00160990600000000
-0.00146295500000000
-0.00129304300000000
-0.00111943900000000
-0.000962466200000000
-0.000837527900000000
-0.000755520900000000
-0.000722584300000000
-0.000739359100000000
-0.000801509200000000
-0.000898424700000000
-0.00101234200000000
-0.00112284000000000
-0.00121731500000000
-0.00128947400000000
-0.00133764200000000
-0.00136465500000000
-0.00137652800000000
-0.00137833400000000
-0.00136886800000000
-0.00134201300000000
-0.00128849800000000
-0.00119783600000000
-0.00106094400000000
-0.000872111400000000
-0.000630190800000000
-0.000337096700000000
5.12888100000000e-06
0.000390697300000000
0.000807629300000000
0.00123931800000000
0.00167131800000000
0.00209374400000000
0.00249958200000000
0.00288381800000000
0.00324250800000000
0.00357062800000000
0.00386365200000000
0.00411923400000000
0.00433865200000000
0.00452763100000000
0.00469596900000000
0.00485264000000000
0.00499929600000000
0.00513229000000000
0.00524484900000000
0.00532814500000000
0.00537286400000000
0.00537060900000000
0.00531560900000000
0.00520677100000000
0.00504907100000000
0.00485048500000000
0.00461291600000000
0.00433343200000000
0.00400879000000000
0.00363849400000000
0.00322716000000000
0.00278495200000000
0.00232484900000000
0.00186378200000000
0.00142384000000000
0.00103082000000000
0.000709246000000000
0.000477086200000000
0.000342640800000000
0.000301806400000000
0.000337229300000000
0.000425843600000000
0.000549978100000000
0.000692874600000000
0.000835514100000000
0.000959677700000000
0.00105470100000000
0.00111696900000000
0.00114888100000000
0.00115837200000000
0.00115529700000000
0.00114684400000000
0.00113868700000000
0.00113610200000000
0.00114395000000000
0.00116669900000000
0.00120808900000000
0.00127072100000000
0.00135531200000000
0.00145985000000000
0.00157875600000000
0.00170254300000000
0.00181881400000000
0.00191574700000000
0.00198390400000000
0.00201649900000000
0.00201023900000000
0.00196639100000000
0.00189123600000000
0.00179398000000000
0.00168011600000000
0.00154943300000000
0.00139845500000000
0.00122235300000000
0.00101637300000000
0.000776931300000000
0.000501481900000000
0.000190097800000000
-0.000152502900000000
-0.000516028000000000
-0.000887054600000000
-0.00125110800000000
-0.00159196900000000
-0.00189211600000000
-0.00213529800000000
-0.00231078500000000
-0.00241667800000000
-0.00246106500000000
-0.00245913400000000
-0.00242280700000000
-0.00235790700000000
-0.00226848300000000
-0.00215962900000000
-0.00203894100000000
-0.00191737400000000
-0.00180782000000000
-0.00172084700000000
-0.00166370500000000
-0.00164004200000000
-0.00164879300000000
-0.00168327700000000
-0.00173186100000000
-0.00178226200000000
-0.00182500500000000
-0.00185207700000000
-0.00185621900000000
-0.00183112900000000
-0.00177090200000000
-0.00166857100000000
-0.00151822800000000
-0.00131743600000000
-0.00106894300000000
-0.000780586400000000
-0.000460873400000000
-0.000115881700000000
0.000247386900000000
0.000618770900000000
0.000985024100000000
0.00133239600000000
0.00164782300000000
0.00191891600000000
0.00213467800000000
0.00228592300000000
0.00236426400000000
0.00236489200000000
0.00228983200000000
0.00214967000000000
0.00195793900000000
0.00171681000000000
0.00142281000000000
0.00107313900000000
0.000668882400000000
0.000217507200000000
-0.000268353400000000
-0.000773902200000000
-0.00127941800000000
-0.00175923500000000
-0.00218563900000000
-0.00253782500000000
-0.00280469900000000
-0.00298531600000000
-0.00308510500000000
-0.00310451900000000
-0.00304156500000000
-0.00289823500000000
-0.00268412900000000
-0.00241535500000000
-0.00210699800000000
-0.00177430500000000
-0.00143405900000000
-0.00109976300000000
-0.000780201900000000
-0.000481271200000000
-0.000207003800000000
3.92057900000000e-05
0.000251929500000000
0.000424517600000000
0.000550937900000000
0.000627305400000000
0.000651372000000000
0.000619144500000000
0.000527193100000000
0.000376225800000000
0.000172979200000000
-7.36015500000000e-05
-0.000362891100000000
-0.000697743300000000
-0.00107927200000000
-0.00150428100000000
-0.00196392600000000
-0.00244367200000000
-0.00292117800000000
-0.00336601500000000
-0.00374311600000000
-0.00402172300000000
-0.00418406000000000
-0.00422753500000000
-0.00416486400000000
-0.00401551400000000
-0.00379297300000000
-0.00351081100000000
-0.00318580900000000
-0.00283230800000000
-0.00245856300000000
-0.00207031000000000
-0.00167334700000000
-0.00127276200000000
-0.000871616700000000
-0.000472379200000000
-7.83814800000000e-05
0.000306328500000000
0.000677148800000000
0.00102944800000000
0.00135879800000000
0.00166159000000000
0.00193399800000000
0.00216876600000000
0.00235519700000000
0.00248289100000000
0.00254479600000000
0.00253915100000000
0.00246890000000000
0.00234359900000000
0.00218255300000000
0.00201450200000000
0.00187057700000000
0.00177803000000000
0.00176009700000000
0.00183450300000000
0.00201117600000000
0.00229139600000000
0.00266426800000000
0.00310411000000000
0.00357608700000000
0.00405331400000000
0.00451739500000000
0.00495462900000000
0.00535525600000000
0.00571345500000000
0.00602689700000000
0.00629684000000000
0.00652903200000000
0.00673410800000000
0.00692452700000000
0.00710663600000000
0.00727787700000000
0.00742938300000000
0.00754804800000000
0.00761857400000000
0.00762601600000000
0.00755826600000000
0.00740870500000000
0.00717953400000000
0.00688387500000000
0.00654005100000000
0.00615698800000000
0.00573905500000000
0.00529130300000000
0.00482102300000000
0.00433830000000000
0.00385384000000000
0.00338068600000000
0.00293483800000000
0.00253415800000000
0.00219508800000000
0.00192916200000000
0.00174091500000000
0.00162709500000000
0.00158062600000000
0.00159679900000000
0.00166842000000000
0.00178225600000000
0.00192093200000000
0.00207123900000000
0.00222650700000000
0.00238324000000000
0.00253903900000000
0.00269143000000000
0.00283683100000000
0.00296983900000000
0.00308307700000000
0.00316750400000000
0.00321289600000000
0.00320758500000000
0.00313619400000000
0.00298138900000000
0.00272927900000000
0.00237478800000000
0.00192612400000000
0.00140589300000000
0.000845614900000000
0.000285874400000000
-0.000229163900000000
-0.000669453700000000
-0.00102644500000000
-0.00130498100000000
-0.00150836200000000
-0.00163439400000000
-0.00168128800000000
-0.00164982800000000
-0.00154144400000000
-0.00135976500000000
-0.00111526900000000
-0.000825635300000000
-0.000509636800000000
-0.000185787400000000
0.000124696500000000
0.000398595200000000
0.000616173000000000
0.000766538400000000
0.000848962700000000
0.000873852800000000
0.000862813800000000
0.000840472500000000
0.000816505700000000
0.000789139300000000
0.000749771100000000
0.000686621600000000
0.000589788500000000
0.000452763800000000
0.000274008700000000
5.85285200000000e-05
-0.000183884400000000
-0.000445014900000000
-0.000720367100000000
-0.00100681700000000
-0.00130156300000000
-0.00160210100000000
-0.00190708400000000
-0.00221548300000000
-0.00252600200000000
-0.00283655400000000
-0.00314403100000000
-0.00344417000000000
-0.00373183400000000
-0.00400149500000000
-0.00424808800000000
-0.00446798800000000
-0.00466028700000000
-0.00482773500000000
-0.00497728700000000
-0.00511970000000000
-0.00526595200000000
-0.00541942000000000
-0.00557463200000000
-0.00571837300000000
-0.00583054100000000
-0.00588621600000000
-0.00585927100000000
-0.00572620000000000
-0.00547044800000000
-0.00508594000000000
-0.00457974100000000
-0.00397680600000000
-0.00331952000000000
-0.00265351400000000
-0.00200710600000000
-0.00139566400000000
-0.000824906600000000
-0.000291055900000000
0.000216958800000000
0.000710982300000000
0.00119855200000000
0.00168378400000000
0.00216807800000000
0.00264996100000000
0.00312551200000000
0.00358876300000000
0.00403263300000000
0.00444960900000000
0.00483249600000000
0.00517291400000000
0.00545960900000000
0.00568142300000000
0.00583051300000000
0.00590360500000000
0.00590107500000000
0.00582814300000000
0.00569769400000000
0.00552782600000000
0.00533140700000000
0.00511293200000000
0.00487257800000000
0.00460852300000000
0.00431760300000000
0.00399648600000000
0.00364385500000000
0.00326236500000000
0.00285867800000000
0.00244037000000000
0.00201334900000000
0.00158377200000000
0.00115904300000000
0.000748013800000000
0.000360525000000000
6.90928600000000e-06
-0.000303265700000000
-0.000562865700000000
-0.000768828500000000
-0.000921792400000000
-0.00102516400000000
-0.00108776000000000
-0.00112562700000000
-0.00115938500000000
-0.00120611600000000
-0.00127559200000000
-0.00137132000000000
-0.00149031100000000
-0.00162272900000000
-0.00175217400000000
-0.00185890200000000
-0.00192621300000000
-0.00194163800000000
-0.00189829400000000
-0.00179713300000000
-0.00164789800000000
-0.00146714400000000
-0.00127166200000000
-0.00107252400000000
-0.000877325500000000
-0.000691762000000000
-0.000520109800000000
-0.000366046100000000
-0.000232155400000000
-0.000119302100000000
-2.60321200000000e-05
5.19088300000000e-05
0.000121466100000000
0.000190354300000000
0.000264287900000000
0.000347555400000000
0.000443358300000000
0.000553487600000000
0.000678163200000000
0.000816162000000000
0.000964246800000000
0.00111653800000000
0.00126434600000000
0.00139686400000000
0.00150318200000000
0.00157388000000000
0.00160226600000000
0.00158581000000000
0.00152748400000000
0.00143453900000000
0.00131414100000000
0.00117555600000000
0.00103190400000000
0.000899682100000000
0.000795520900000000
0.000728154100000000
0.000695030100000000
0.000683693000000000
0.000676806900000000
0.000661801100000000
0.000630262600000000
0.000577274900000000
0.000502530900000000
0.000410908700000000
0.000312348500000000
0.000219897300000000
0.000148444700000000
0.000113734700000000
0.000130530700000000
0.000209903100000000
0.000356179900000000
0.000563907200000000
0.000815819600000000
0.00108406600000000
0.00133869900000000
0.00155519300000000
0.00171357200000000
0.00179891900000000
0.00180269800000000
0.00172265700000000
0.00156543200000000
0.00134866300000000
0.00109744300000000
0.000831696200000000
0.000561941700000000
0.000293186800000000
2.73411500000000e-05
-0.000235195700000000
-0.000493208400000000
-0.000744134800000000
-0.000983735700000000
-0.00120615800000000
-0.00140440600000000
-0.00157148700000000
-0.00170187900000000
-0.00179344600000000
-0.00184886500000000
-0.00187585300000000
-0.00188303100000000
-0.00187407900000000
-0.00185033500000000
-0.00181323100000000
-0.00176524600000000
-0.00171087000000000
-0.00165689300000000
-0.00161190600000000
-0.00158405900000000
-0.00157890700000000
-0.00159875500000000
-0.00164191800000000
-0.00170199300000000
-0.00176912800000000
-0.00183398800000000
-0.00188797200000000
-0.00192261700000000
-0.00193000400000000
-0.00190370500000000
-0.00183978000000000
-0.00173769800000000
-0.00159886300000000
-0.00142205500000000
-0.00120504600000000
-0.000949228000000000
-0.000663541600000000
-0.000366562100000000
-8.49260000000000e-05
0.000149629100000000
0.000320035000000000
0.000447576900000000
0.000542334500000000
0.000603256600000000
0.000627419700000000
0.000610908900000000
0.000551756400000000
0.000451553300000000
0.000317462400000000
0.000162014600000000
-1.48581200000000e-06
-0.000166078900000000
-0.000328721500000000
-0.000488365600000000
-0.000644884000000000
-0.000797491000000000
-0.000944918200000000
-0.00108574100000000
-0.00121864700000000
-0.00134284400000000
-0.00145846000000000
-0.00156691600000000
-0.00167147800000000
-0.00177750600000000
-0.00189234500000000
-0.00202397000000000
-0.00217819300000000
-0.00235756700000000
-0.00256079600000000
-0.00278222300000000
-0.00301196700000000
-0.00323925400000000
-0.00345953100000000
-0.00367348500000000
-0.00388561700000000
-0.00410304900000000
-0.00433272200000000
-0.00457948500000000
-0.00484498700000000
-0.00512636400000000
-0.00541505600000000
-0.00569654200000000
-0.00595178000000000
-0.00615921300000000
-0.00629598700000000
-0.00634010300000000
-0.00627192500000000
-0.00607356800000000
-0.00573246700000000
-0.00524857900000000
-0.00463936000000000
-0.00393753600000000
-0.00317609100000000
-0.00238225800000000
-0.00157564600000000
-0.000761991200000000
6.22504500000000e-05
0.000904182500000000
0.00176787300000000
0.00264374200000000
0.00350822300000000
0.00432508200000000
0.00504892100000000
0.00563470700000000
0.00605648300000000
0.00631719700000000
0.00644631700000000
0.00648140200000000
0.00644326900000000
0.00634545500000000
0.00620203200000000
0.00602798900000000
0.00583432600000000
0.00562033400000000
0.00537809600000000
0.00509728800000000
0.00476931200000000
0.00439121700000000
0.00396747200000000
0.00351003700000000
0.00303275100000000
0.00254347100000000
0.00204642400000000
0.00154439500000000
0.00103910100000000
0.000531947300000000
2.44659600000000e-05
-0.000480873400000000
-0.000980415700000000
-0.00146877700000000
-0.00193879300000000
-0.00238130700000000
-0.00278586600000000
-0.00314220900000000
-0.00344217300000000
-0.00367994400000000
-0.00385058900000000
-0.00395377300000000
-0.00399703800000000
-0.00399601000000000
-0.00396818800000000
-0.00392367700000000
-0.00386854800000000
-0.00380757000000000
-0.00374449200000000
-0.00368136800000000
-0.00361717600000000
-0.00354866100000000
-0.00347106300000000
-0.00337872600000000
-0.00326562900000000
-0.00312613900000000
-0.00295612300000000
-0.00275415100000000
-0.00252152300000000
-0.00226079400000000
-0.00197684500000000
-0.00167849000000000
-0.00137879000000000
-0.00109288400000000
-0.000832138400000000
-0.000603079500000000
-0.000407628600000000
-0.000243021200000000
-0.000104052000000000
1.09114800000000e-05
0.000100412300000000
0.000162320200000000
0.000195549100000000
0.000201308300000000
0.000183731700000000
0.000148109900000000
9.81650100000000e-05
3.76403500000000e-05
-2.85286900000000e-05
-9.52556500000000e-05
-0.000159956200000000
-0.000222719100000000
-0.000285423500000000
-0.000351322500000000
-0.000424361100000000
-0.000508423200000000
-0.000606119400000000
-0.000717415800000000
-0.000836844000000000
-0.000949725400000000
-0.00103327300000000
-0.00105971100000000
-0.00100234500000000
-0.000847259400000000
-0.000599525800000000
-0.000283470700000000
6.75131800000000e-05
0.000433367700000000
0.000802268700000000
0.00116489800000000
0.00151195700000000
0.00182922300000000
0.00209818200000000
0.00229865400000000
0.00241289600000000
0.00243163200000000
0.00235965500000000
0.00221781500000000
0.00203853400000000
0.00185184800000000
0.00168484000000000
0.00156389600000000
0.00151240500000000
0.00154458300000000
0.00165962200000000
0.00184067400000000
0.00205561600000000
0.00226634300000000
0.00245032100000000
0.00260306200000000
0.00273412600000000
0.00286322500000000
0.00301101400000000
0.00319108800000000
0.00340923400000000
0.00366232400000000
0.00393712900000000
0.00421262600000000
0.00446781600000000
0.00468568400000000
0.00485323300000000
0.00496243700000000
0.00501016000000000
0.00499392600000000
0.00490949300000000
0.00475546800000000
0.00453720200000000
0.00426877400000000
0.00397234100000000
0.00367002700000000
0.00337250000000000
0.00308190600000000
0.00279457800000000
0.00250241600000000
0.00219550500000000
0.00186482400000000
0.00150373800000000
0.00110980000000000
0.000686554100000000
0.000244835200000000
-0.000197098700000000
-0.000616750700000000
-0.000994860700000000
-0.00131623000000000
-0.00157103000000000
-0.00175689500000000
-0.00187905800000000
-0.00194558100000000
-0.00196415000000000
-0.00194551200000000
-0.00190548700000000
-0.00186142500000000
-0.00182362500000000
-0.00179712600000000
-0.00178365400000000
-0.00178191100000000
-0.00178843600000000
-0.00179954200000000
-0.00181382100000000
-0.00183146900000000
-0.00185350200000000
-0.00188107000000000
-0.00191456600000000
-0.00195257100000000
-0.00199063100000000
-0.00202027500000000
-0.00202896500000000
-0.00200089600000000
-0.00191869500000000
-0.00176638200000000
-0.00153318300000000
-0.00121660800000000
-0.000824660100000000
-0.000372527400000000
0.000129221200000000
0.000672815000000000
0.00124800500000000
0.00183965900000000
0.00242899300000000
0.00299897700000000
0.00353429700000000
0.00401929700000000
0.00443618600000000
0.00476495800000000
0.00498763500000000
0.00509277100000000
0.00507832500000000
0.00495049900000000
0.00472301300000000
0.00441984800000000
0.00406780700000000
0.00368405200000000
0.00328156900000000
0.00287344400000000
0.00247139200000000
0.00208099300000000
0.00170196000000000
0.00133067300000000
0.000962411400000000
0.000596038800000000
0.000237230600000000
-0.000102199500000000
-0.000405628900000000
-0.000652901200000000
-0.000822168600000000
-0.000892897400000000
-0.000851162800000000
-0.000694654300000000
-0.000436408600000000
-0.000101944800000000
0.000284645500000000
0.000704660600000000
0.00113914400000000
0.00156663500000000
0.00196433200000000
0.00231414800000000
0.00261085800000000
0.00286135800000000
0.00308294100000000
0.00329809500000000
0.00352162500000000
0.00375507000000000
0.00398853500000000
0.00420196100000000
0.00436701400000000
0.00445127900000000
0.00442656200000000
0.00427903800000000
0.00401244400000000
0.00364639800000000
0.00320370800000000
0.00270102400000000
0.00215558800000000
0.00158804100000000
0.00101829500000000
0.000464996000000000
-5.23071500000000e-05
-0.000511432500000000
-0.000886554400000000
-0.00115091300000000
-0.00128205800000000
-0.00126774800000000
-0.00111191000000000
-0.000838695900000000
-0.000487370400000000
-9.12197200000000e-05
0.000328669300000000
0.000755672700000000
0.00117368300000000
0.00156584000000000
0.00191397200000000
0.00219926000000000
0.00240403700000000
0.00251478000000000
0.00252553300000000
0.00244122600000000
0.00227697800000000
0.00205023000000000
0.00177866600000000
0.00148135400000000
0.00117223300000000
0.000858311600000000
0.000542679200000000
0.000226520300000000
-9.01617500000000e-05
-0.000408182200000000
-0.000729375700000000
-0.00105573600000000
-0.00138886900000000
-0.00172923400000000
-0.00207548000000000
-0.00242340300000000
-0.00276630700000000
-0.00309549600000000
-0.00340141300000000
-0.00367572800000000
-0.00391509200000000
-0.00412211600000000
-0.00430535800000000
-0.00447651900000000
-0.00464274000000000
-0.00480045300000000
-0.00493764600000000
-0.00503620500000000
-0.00507531300000000
-0.00503680200000000
-0.00490836200000000
-0.00468516800000000
-0.00436941100000000
-0.00397378800000000
-0.00352468000000000
-0.00305745900000000
-0.00260043800000000
-0.00216960400000000
-0.00177519600000000
-0.00142518800000000
-0.00112426000000000
-0.000874193900000000
-0.000676705600000000
-0.000532710900000000
-0.000441862800000000
-0.000406004300000000
-0.000431219200000000
-0.000524526600000000
-0.000692730000000000
-0.000940834600000000
-0.00126702600000000
-0.00165898700000000
-0.00209396900000000
-0.00254790600000000
-0.00300886600000000
-0.00347246900000000
-0.00393776500000000
-0.00440475800000000
-0.00487010200000000
-0.00532389800000000
-0.00575037900000000
-0.00612960800000000
-0.00644145700000000
-0.00667069400000000
-0.00680893200000000
-0.00685306800000000
-0.00679861300000000
-0.00664360800000000
-0.00639495500000000
-0.00607164000000000
-0.00569903200000000
-0.00529282000000000
-0.00486458800000000
-0.00442738600000000
-0.00399688600000000
-0.00359195200000000
-0.00323191400000000
-0.00293117800000000
-0.00269758200000000
-0.00253101400000000
-0.00242170100000000
-0.00235280600000000
-0.00230977700000000
-0.00228328500000000
-0.00226566600000000
-0.00224936600000000
-0.00222735600000000
-0.00219560700000000
-0.00215302400000000
-0.00210083800000000
-0.00204227100000000
-0.00198223900000000
-0.00192650700000000
-0.00187977100000000
-0.00184309800000000
-0.00181385000000000
-0.00178564700000000
-0.00174847300000000
-0.00168921500000000
-0.00159298400000000
-0.00144501300000000
-0.00123341900000000
-0.000952263100000000
-0.000605116200000000
-0.000207572200000000
0.000211835500000000
0.000617971700000000
0.000984755400000000
0.00129645300000000
0.00154303500000000
0.00171892200000000
0.00182443000000000
0.00186424900000000
0.00183846700000000
0.00173688100000000
0.00154516300000000
0.00125116900000000
0.000849952900000000
0.000348245200000000
-0.000236770200000000
-0.000886328200000000
-0.00157509500000000
-0.00227067600000000
-0.00294437700000000
-0.00357995500000000
-0.00417046500000000
-0.00471435900000000
-0.00520846300000000
-0.00564336400000000
-0.00600753200000000
-0.00629131200000000
-0.00648936500000000
-0.00660094200000000
-0.00663118400000000
-0.00659553900000000
-0.00652179200000000
-0.00644254400000000
-0.00637711500000000
-0.00633435000000000
-0.00631561100000000
-0.00631453200000000
-0.00631851600000000
-0.00631255500000000
-0.00628300900000000
-0.00621779200000000
-0.00610732800000000
-0.00594518500000000
-0.00572754000000000
-0.00545435700000000
-0.00513238400000000
-0.00477643300000000
-0.00440793200000000
-0.00404699300000000
-0.00370623700000000
-0.00339286300000000
-0.00311113800000000
-0.00286567200000000
-0.00266368200000000
-0.00251244600000000
-0.00241698700000000
-0.00237808800000000
-0.00239144700000000
-0.00245063300000000
-0.00255179900000000
-0.00268967700000000
-0.00285452500000000
-0.00303227500000000
-0.00320912400000000
-0.00337527900000000
-0.00352323400000000
-0.00364666800000000
-0.00373940400000000
-0.00379304500000000
-0.00379930800000000
-0.00375264200000000
-0.00365280400000000
-0.00350682000000000
-0.00333003500000000
-0.00314140800000000
-0.00295239200000000
-0.00276914700000000
-0.00259512400000000
-0.00243091500000000
-0.00227492900000000
-0.00212419000000000
-0.00197651600000000
-0.00183062300000000
-0.00168598500000000
-0.00154258000000000
-0.00140089000000000
-0.00126146000000000
-0.00112482000000000
-0.000991279000000000
-0.000861397600000000
-0.000736026900000000
-0.000615941500000000
-0.000501301500000000
-0.000391592300000000
-0.000285224700000000
-0.000179848500000000
-7.28013500000000e-05
3.81885700000000e-05
0.000154915600000000
0.000278239000000000
0.000407747800000000
0.000541217000000000
0.000674522500000000
0.000801484000000000
0.000914278000000000
0.00100408300000000
0.00106239900000000
0.00108258700000000
0.00106188500000000
0.00100320800000000
0.000916842900000000
0.000820617800000000
0.000735997800000000
0.000678824000000000
0.000659708400000000
0.000684077600000000
0.000750879900000000
0.000851886300000000
0.000974017300000000
0.00110649400000000
0.00124336900000000
0.00138130000000000
0.00151834900000000
0.00165316700000000
0.00178428200000000
0.00190926800000000
0.00202412100000000
0.00212219000000000
0.00219243400000000
0.00221894400000000
0.00218363500000000
0.00206981600000000
0.00186625100000000
0.00157175800000000
0.00119892400000000
0.000775969800000000
0.000339354100000000
-8.46852600000000e-05
-0.000476913200000000
-0.000822169200000000
-0.00111027200000000
-0.00133657000000000
-0.00150037500000000
-0.00159959200000000
-0.00163245200000000
-0.00160095200000000
-0.00151248800000000
-0.00137573300000000
-0.00118949200000000
-0.000948304800000000
-0.000648378200000000
-0.000291502800000000
0.000111974100000000
0.000541660400000000
0.000973523700000000
0.00139332600000000
0.00178757500000000
0.00214178700000000
0.00244280400000000
0.00267907000000000
0.00284178800000000
0.00292829900000000
0.00294556100000000
0.00291171900000000
0.00285345700000000
0.00279398200000000
0.00274354100000000
0.00270251600000000
0.00266382700000000
0.00261414800000000
0.00253699400000000
0.00241877700000000
0.00225431900000000
0.00204807100000000
0.00181465100000000
0.00157707800000000
0.00135809300000000
0.00116844300000000
0.00100797000000000
0.000867290400000000
0.000730257700000000
0.000582115300000000
0.000416214900000000
0.000233590500000000
4.26057100000000e-05
-0.000141221300000000
-0.000298251400000000
-0.000411625800000000
-0.000471671800000000
-0.000476986000000000
-0.000435525800000000
-0.000361589600000000
-0.000266558500000000
-0.000159166100000000
-4.84049900000000e-05
5.56810000000000e-05
0.000142130000000000
0.000200437100000000
0.000221981300000000
0.000200762800000000
0.000133159500000000
1.62934700000000e-05
-0.000150023500000000
-0.000360145800000000
-0.000600805500000000
-0.000850619700000000
-0.00108528400000000
-0.00128921800000000
-0.00145457100000000
-0.00157991200000000
-0.00167052100000000
-0.00173536200000000
-0.00177997200000000
-0.00180628300000000
-0.00181460200000000
-0.00180433600000000
-0.00177350900000000
-0.00171636500000000
-0.00162373300000000
-0.00148614100000000
-0.00129685100000000
-0.00105488800000000
-0.000767468000000000
-0.000451411800000000
-0.000130720300000000
0.000173062300000000
0.000447834000000000
0.000685910800000000
0.000882424500000000
0.00103711100000000
0.00115531700000000
0.00124651700000000
0.00131832500000000
0.00137200300000000
0.00140515800000000
0.00141408700000000
0.00139555300000000
0.00134855600000000
0.00127601100000000
0.00118467800000000
0.00108243000000000
0.000977608200000000
0.000880354300000000
0.000802761700000000
0.000758042300000000
0.000758872500000000
0.000815177800000000
0.000931399400000000
0.00110364400000000
0.00131741000000000
0.00154699000000000
0.00175986900000000
0.00192921700000000
0.00204004500000000
0.00208898000000000
0.00208462100000000
0.00204651700000000
0.00199724700000000
0.00195146000000000
0.00191772000000000
0.00190001300000000
0.00189740000000000
0.00190460400000000
0.00191383900000000
0.00191669000000000
0.00190446900000000
0.00186905900000000
0.00180419600000000
0.00170679200000000
0.00157806400000000
0.00142322600000000
0.00124879800000000
0.00106205700000000
0.000872463900000000
0.000692143800000000
0.000535330200000000
0.000416361100000000
0.000345338400000000
0.000324307600000000
0.000346777900000000
0.000400173200000000
0.000473287700000000
0.000558554300000000
0.000649215100000000
0.000737767600000000
0.000815343600000000
0.000871573500000000
0.000895101800000000
0.000874931700000000
0.000802022200000000
0.000671323500000000
0.000483713400000000
0.000247317500000000
-2.61402500000000e-05
-0.000331141400000000
-0.000664418100000000
-0.00102097000000000
-0.00139255300000000
-0.00176777400000000
-0.00213487600000000
-0.00248155100000000
-0.00279445700000000
-0.00305995800000000
-0.00326565200000000
-0.00340175500000000
-0.00346211500000000
-0.00344719900000000
-0.00336630900000000
-0.00323354000000000
-0.00305580000000000
-0.00283401700000000
-0.00256866300000000
-0.00226265100000000
-0.00192343200000000
-0.00156186100000000
-0.00118671500000000
-0.000803060600000000
-0.000415030300000000
-2.68962700000000e-05
0.000356334300000000
0.000729477800000000
0.00108831000000000
0.00142998900000000
0.00175322400000000
0.00205875800000000
0.00234824400000000
0.00262158000000000
0.00287727100000000
0.00311409500000000
0.00333190600000000
0.00353193600000000
0.00371538000000000
0.00388266900000000
0.00403471800000000
0.00417413100000000
0.00430539700000000
0.00443445400000000
0.00456587500000000
0.00469930700000000
0.00483012500000000
0.00495046000000000
0.00505036100000000
0.00512029700000000
0.00515304300000000
0.00514504200000000
0.00509767700000000
0.00501797200000000
0.00491637400000000
0.00479973500000000
0.00466888300000000
0.00452061100000000
0.00434910800000000
0.00414700000000000
0.00390657400000000
0.00362052200000000
0.00328062600000000
0.00287582200000000
0.00239647400000000
0.00183827600000000
0.00120330400000000
0.000497600100000000
-0.000264290900000000
-0.00105650600000000
-0.00184431700000000
-0.00259539400000000
-0.00328911600000000
-0.00391522000000000
-0.00447091000000000
-0.00495588500000000
-0.00537170500000000
-0.00572519100000000
-0.00602971300000000
-0.00630034100000000
-0.00654199100000000
-0.00675273400000000
-0.00692709100000000
-0.00705487900000000
-0.00711764700000000
-0.00709353300000000
-0.00696331100000000
-0.00671579100000000
-0.00635315600000000
-0.00589424400000000
-0.00537053600000000
-0.00480924100000000
-0.00422778500000000
-0.00363875600000000
-0.00305214100000000
-0.00247634600000000
-0.00191902400000000
-0.00138650800000000
-0.000882758400000000
-0.000408807100000000
3.69902400000000e-05
0.000458803400000000
0.000859483500000000
0.00123301400000000
0.00156706800000000
0.00184692200000000
0.00205828700000000
0.00219144100000000
0.00224576200000000
0.00223064800000000
0.00215646600000000
0.00202826500000000
0.00185096000000000
0.00163297200000000
0.00138519900000000
0.00111533700000000
0.000826631000000000
0.000521219200000000
0.000202301400000000
-0.000124703600000000
-0.000451845400000000
-0.000768536900000000
-0.00106184300000000
-0.00131783900000000
-0.00152511000000000
-0.00168030700000000
-0.00178982400000000
-0.00187029400000000
-0.00194614100000000
-0.00203987500000000
-0.00216398600000000
-0.00232197600000000
-0.00250904600000000
-0.00271220400000000
-0.00291483900000000
-0.00310625400000000
-0.00328086600000000
-0.00343685900000000
-0.00357620700000000
-0.00370213000000000
-0.00381381800000000
-0.00390608000000000
-0.00397105400000000
-0.00399941300000000
-0.00398221600000000
-0.00391299600000000
-0.00379047000000000
-0.00362045600000000
-0.00341690200000000
-0.00319825100000000
-0.00297688800000000
-0.00275490700000000
-0.00252694100000000
-0.00228160600000000
-0.00200336800000000
-0.00167567800000000
-0.00128629200000000
-0.000829971900000000
-0.000311411400000000
0.000253010100000000
0.000836383500000000
0.00141189300000000
0.00196675300000000
0.00249900000000000
0.00301278200000000
0.00351184700000000
0.00399065900000000
0.00443655700000000
0.00483195000000000
0.00515699500000000
0.00539306100000000
0.00552743400000000
0.00555731300000000
0.00549321500000000
0.00535487000000000
0.00515814200000000
0.00492019600000000
0.00466297400000000
0.00440794700000000
0.00416860800000000
0.00395218800000000
0.00376111800000000
0.00359287500000000
0.00344100900000000
0.00329819600000000
0.00315862200000000
0.00301689700000000
0.00286736500000000
0.00270401800000000
0.00252062200000000
0.00231122700000000
0.00207094500000000
0.00179712500000000
0.00149035200000000
0.00115490200000000
0.000796307400000000
0.000417939000000000
2.36678600000000e-05
-0.000379580500000000
-0.000780647200000000
-0.00116341600000000
-0.00150764900000000
-0.00179124100000000
-0.00199236000000000
-0.00209239300000000
-0.00207908000000000
-0.00194780100000000
-0.00170367300000000
-0.00136597200000000
-0.000966386100000000
-0.000534532700000000
-8.67269600000000e-05
0.000367897500000000
0.000823082900000000
0.00127367500000000
0.00171412400000000
0.00213705700000000
0.00253216800000000
0.00288663400000000
0.00318652400000000
0.00341861000000000
0.00357225700000000
0.00363897500000000
0.00361137300000000
0.00348893400000000
0.00328267400000000
0.00301566800000000
0.00271403400000000
0.00239362500000000
0.00206487000000000
0.00173682200000000
0.00141780900000000
0.00111560600000000
0.000836065000000000
0.000582398100000000
0.000354704300000000
0.000149648300000000
-3.87620100000000e-05
-0.000215767900000000
-0.000385120100000000
-0.000550570500000000
-0.000716882600000000
-0.000890026300000000
-0.00107703300000000
-0.00128485300000000
-0.00151816000000000
-0.00177760900000000
-0.00205893700000000
-0.00235218500000000
-0.00264190600000000
-0.00291015900000000
-0.00314361800000000
-0.00333538100000000
-0.00348505200000000
-0.00359912800000000
-0.00368812900000000
-0.00375899800000000
-0.00381504400000000
-0.00385813500000000
-0.00388949600000000
-0.00391003000000000
-0.00391938300000000
-0.00391475500000000
-0.00389226600000000
-0.00384854800000000
-0.00378166500000000
-0.00369197400000000
-0.00358084400000000
-0.00344713400000000
-0.00328911100000000
-0.00310664200000000
-0.00290241700000000
-0.00268307500000000
-0.00245943500000000
-0.00224486900000000
-0.00205071100000000
-0.00188512200000000
-0.00175260100000000
-0.00165285100000000
-0.00157976200000000
-0.00152125200000000
-0.00146229300000000
-0.00139223000000000
-0.00130410600000000
-0.00119414000000000
-0.00106238500000000
-0.000913127100000000
-0.000754483600000000
-0.000595835000000000
-0.000444048800000000
-0.000303944500000000
-0.000178475700000000
-6.83822900000000e-05
2.80201200000000e-05
0.000114633200000000
0.000195817800000000
0.000272536700000000
0.000343199800000000
0.000404470500000000
0.000451896800000000
0.000480802200000000
0.000487478700000000
0.000470456100000000
0.000431750900000000
0.000377570000000000
0.000317477000000000
0.000260675400000000
0.000214436900000000
0.000184442800000000
0.000174509200000000
0.000185753000000000
0.000215994600000000
0.000259389200000000
0.000308224400000000
0.000356869700000000
0.000401172900000000
0.000437802200000000
0.000464552700000000
0.000480529200000000
0.000486500400000000
0.000484960900000000
0.000479815300000000
0.000474964100000000
0.000473780200000000
0.000479217000000000
0.000493774200000000
0.000519144900000000
0.000555927700000000
0.000603221000000000
0.000658787100000000
0.000719862000000000
0.000784553100000000
0.000851231200000000
0.000918126500000000
0.000983158800000000
0.00104395900000000
0.00109795600000000
0.00114285700000000
0.00117728500000000
0.00120119200000000
0.00121616900000000
0.00122575000000000
0.00123528200000000
0.00125083900000000
0.00127662600000000
0.00131435800000000
0.00136306000000000
0.00141876100000000
0.00147437400000000
0.00152015200000000
0.00154536300000000
0.00154159900000000
0.00150444600000000
0.00143477600000000
0.00134000100000000
0.00123459200000000
0.00113832800000000
0.00107020200000000
0.00104293600000000
0.00106256400000000
0.00112776400000000
0.00122932300000000
0.00135395200000000
0.00149353100000000
0.00164294200000000
0.00179783200000000
0.00195420700000000
0.00210806100000000
0.00225554900000000
0.00239403600000000
0.00252290400000000
0.00264322300000000
0.00275745300000000
0.00286923500000000
0.00298282100000000
0.00310193700000000
0.00322700500000000
0.00335196200000000
0.00346472300000000
0.00354831700000000
0.00358244400000000
0.00354620000000000
0.00342192300000000
0.00320039700000000
0.00288610400000000
0.00249955000000000
0.00207302700000000
0.00163543800000000
0.00120678900000000
0.000802049300000000
0.000432717000000000
0.000107177300000000
-0.000167223800000000
-0.000381870100000000
-0.000529925200000000
-0.000609785900000000
-0.000627725700000000
-0.000599714800000000
-0.000549424000000000
-0.000498553200000000
-0.000459005200000000
-0.000435735600000000
-0.000428644500000000
-0.000433410200000000
-0.000443969900000000
-0.000455610400000000
-0.000464797500000000
-0.000469035000000000
-0.000467153300000000
-0.000459472200000000
-0.000447866800000000
-0.000435657300000000
-0.000427344900000000
-0.000428142800000000
-0.000443320400000000
-0.000477353500000000
-0.000532944700000000
-0.000610000000000000
-0.000704752400000000
-0.000809324400000000
-0.000912567200000000
-0.00100333500000000
-0.00107343100000000
-0.00111761400000000
-0.00113403200000000
-0.00112478000000000
-0.00109598100000000
-0.00105533100000000
-0.00100624300000000
-0.000947528200000000
-0.000874970700000000
-0.000782306000000000
-0.000662403300000000
-0.000508544900000000
-0.000314936000000000
-7.59158300000000e-05
0.000210788900000000
0.000540817700000000
0.000901074600000000
0.00126896700000000
0.00161616400000000
0.00191855500000000
0.00215860200000000
0.00232560500000000
0.00241710400000000
0.00243679100000000
0.00238685900000000
0.00227013300000000
0.00209460500000000
0.00187532200000000
0.00163047200000000
0.00137057500000000
0.00110195100000000
0.000830064300000000
0.000560335100000000
0.000298274900000000
4.80408700000000e-05
-0.000188874900000000
-0.000413460400000000
-0.000629069400000000
-0.000841269500000000
-0.00105615200000000
-0.00127673000000000
-0.00150330400000000
-0.00173387900000000
-0.00196414100000000
-0.00218769100000000
-0.00239675700000000
-0.00258371000000000
-0.00274229800000000
-0.00286849700000000
-0.00296126400000000
-0.00302217600000000
-0.00305234200000000
-0.00305040400000000
-0.00301488900000000
-0.00294625200000000
-0.00284785000000000
-0.00272532900000000
-0.00258223000000000
-0.00241702500000000
-0.00222575100000000
-0.00200449800000000
-0.00175103900000000
-0.00146600800000000
-0.00115298100000000
-0.000820031700000000
-0.000480222600000000
-0.000148769000000000
0.000164551400000000
0.000456358900000000
0.000728769000000000
0.000988819900000000
0.00124593900000000
0.00150559700000000
0.00176664500000000
0.00202219600000000
0.00226062700000000
0.00246678600000000
0.00262523200000000
0.00272553700000000
0.00276517300000000
0.00275074100000000
0.00269661900000000
0.00261679400000000
0.00251873300000000
0.00240672100000000
0.00228434200000000
0.00215534800000000
0.00202419600000000
0.00189537900000000
0.00177226900000000
0.00165769100000000
0.00155429100000000
0.00146445100000000
0.00139041700000000
0.00133511200000000
0.00130231400000000
0.00129502100000000
0.00131378300000000
0.00135544200000000
0.00141238100000000
0.00147424100000000
0.00153265500000000
0.00158037900000000
0.00161068600000000
0.00161795900000000
0.00159836100000000
0.00155037300000000
0.00147436500000000
0.00137257000000000
0.00125044000000000
0.00111732500000000
0.000985573400000000
0.000866328200000000
0.000763800300000000
0.000675796600000000
0.000594390200000000
0.000506731100000000
0.000398094200000000
0.000256194800000000
7.23767300000000e-05
-0.000156787800000000
-0.000427581000000000
-0.000727975200000000
-0.00103969700000000
-0.00134543900000000
-0.00163187400000000
-0.00188841400000000
-0.00210717300000000
-0.00228330600000000
-0.00241382500000000
-0.00249269700000000
-0.00250801300000000
-0.00244663100000000
-0.00229910500000000
-0.00206539000000000
-0.00176094400000000
-0.00141537200000000
-0.00105984600000000
-0.000710431800000000
-0.000372565100000000
-4.61235000000000e-05
0.000270831900000000
0.000578667200000000
0.000876591300000000
0.00116260600000000
0.00143339600000000
0.00168401000000000
0.00190710100000000
0.00209205400000000
0.00222746400000000
0.00230396700000000
0.00231700100000000
0.00226897600000000
0.00216856400000000
0.00202352900000000
0.00183570600000000
0.00160578500000000
0.00133723800000000
0.00103858400000000
0.000724778500000000
0.000416613600000000
0.000135502900000000
-0.000104104900000000
-0.000295045000000000
-0.000438157000000000
-0.000543680600000000
-0.000631376900000000
-0.000725486800000000
-0.000843251600000000
-0.000995554300000000
-0.00118738200000000
-0.00141649600000000
-0.00167284600000000
-0.00194002200000000
-0.00220125400000000
-0.00244448000000000
-0.00266165900000000
-0.00284858100000000
-0.00300519900000000
-0.00313411300000000
-0.00323597700000000
-0.00330828800000000
-0.00334761800000000
-0.00335136500000000
-0.00331897200000000
-0.00325301900000000
-0.00316069400000000
-0.00305425000000000
-0.00294761700000000
-0.00284785000000000
-0.00275433800000000
-0.00266048600000000
-0.00255468000000000
-0.00242237300000000
-0.00224993700000000
-0.00202652700000000
-0.00174655200000000
-0.00141249100000000
-0.00103704400000000
-0.000643713900000000
-0.000261822700000000
8.62363200000000e-05
0.000386943400000000
0.000634418100000000
0.000828942700000000
0.000971351700000000
0.00105937000000000
0.00109167100000000
0.00107134200000000
0.00100783500000000
0.000917145400000000
0.000816873700000000
0.000718788500000000
0.000631171600000000
0.000560547100000000
0.000511572100000000
0.000486719800000000
0.000485653100000000
0.000504750000000000
0.000537354800000000
0.000576206700000000
0.000616867100000000
0.000656554900000000
0.000693178000000000
0.000725071600000000
0.000750857600000000
0.000769332000000000
0.000779715900000000
0.000781789100000000
0.000776207800000000
0.000764716900000000
0.000750037400000000
0.000734853300000000
0.000721043600000000
0.000709970400000000
0.000702700600000000
0.000699877200000000
0.000701623300000000
0.000707369700000000
0.000715898600000000
0.000725582000000000
0.000734531700000000
0.000740514900000000
0.000741221600000000
0.000734523700000000
0.000718987200000000
0.000694387100000000
0.000662337500000000
0.000626727300000000
0.000594052600000000
0.000573273300000000
0.000575344500000000
0.000611991100000000
0.000693969100000000
0.000828415600000000
0.00101573200000000
0.00124720600000000
0.00150418100000000
0.00175980800000000
0.00198857500000000
0.00217890200000000
0.00233163800000000
0.00245780900000000
0.00257392100000000
0.00269061200000000
0.00281137400000000
0.00293427000000000
0.00305276100000000
0.00315796900000000
0.00324342300000000
0.00330648800000000
0.00334856400000000
0.00337482600000000
0.00339104200000000
0.00339908400000000
0.00339839300000000
0.00338729300000000
0.00336351900000000
0.00332489900000000
0.00326997400000000
0.00319843100000000
0.00311049500000000
0.00300599800000000
0.00288564600000000
0.00275222600000000
0.00261120200000000
0.00247091100000000
0.00234186200000000
0.00223397600000000
0.00215049300000000
0.00208543500000000
0.00202485900000000
0.00195105900000000
0.00185097000000000
0.00171828300000000
0.00155353900000000
0.00136506600000000
0.00116899500000000
0.000986623800000000
0.000836360700000000
0.000726834100000000
0.000657059100000000
0.000616920500000000
0.000590729500000000
0.000566544000000000
0.000537109000000000
0.000498472500000000
0.000449901000000000
0.000393746700000000
0.000334264300000000
0.000275850200000000
0.000223036400000000
0.000180301600000000
0.000151448800000000
0.000138963500000000
0.000143356800000000
0.000162793600000000
0.000193517200000000
0.000232027100000000
0.000276712300000000
0.000326926900000000
0.000382227400000000
0.000441919200000000
0.000504625800000000
0.000567971700000000
0.000628686200000000
0.000683261300000000
0.000727973800000000
0.000759109900000000
0.000773541600000000
0.000769390800000000
0.000746409500000000
0.000705431800000000
0.000648233700000000
0.000578801000000000
0.000504157000000000
0.000433678000000000
0.000376717100000000
0.000341982800000000
0.000337231600000000
0.000368162300000000
0.000437265200000000
0.000542855100000000
0.000680928400000000
0.000850424400000000
0.00105030800000000
0.00127645900000000
0.00152002800000000
0.00176635700000000
0.00199521300000000
0.00218465700000000
0.00231924900000000
0.00239101800000000
0.00240025600000000
0.00235671000000000
0.00227618600000000
0.00216998900000000
0.00204148100000000
0.00188995300000000
0.00171305200000000
0.00150812800000000
0.00127297300000000
0.00100817100000000
0.000719015900000000
0.000416530700000000
0.000116083700000000
-0.000168313700000000
-0.000429097300000000
-0.000664666000000000
-0.000879294000000000
-0.00108299000000000
-0.00128895200000000
-0.00150666000000000
-0.00173871000000000
-0.00198133600000000
-0.00222473200000000
-0.00245376300000000
-0.00265128500000000
-0.00280533900000000
-0.00291279300000000
-0.00297877300000000
-0.00301225400000000
-0.00301571800000000
-0.00298542400000000
-0.00291515800000000
-0.00279859500000000
-0.00263172500000000
-0.00241490900000000
-0.00215358100000000
-0.00185518300000000
-0.00152710900000000
-0.00117933900000000
-0.000824777900000000
-0.000475477400000000
-0.000141311300000000
0.000169429100000000
0.000450078400000000
0.000696400000000000
0.000906674300000000
0.00108093300000000
0.00122199400000000
0.00133676100000000
0.00143509200000000
0.00152472000000000
0.00160721900000000
0.00168020800000000
0.00173913900000000
0.00177858600000000
0.00179373100000000
0.00178224400000000
0.00174613300000000
0.00169274900000000
0.00163482500000000
0.00158889800000000
0.00156945100000000
0.00158127900000000
0.00161937100000000
0.00166934800000000
0.00170816700000000
0.00170843700000000
0.00164875600000000
0.00152293300000000
0.00134079200000000
0.00112797100000000
0.000920932400000000
0.000752400300000000
0.000644169800000000
0.000607172000000000
0.000640215900000000
0.000728810400000000
0.000850078700000000
0.000986088600000000
0.00112458600000000
0.00125605600000000
0.00137321000000000
0.00147089500000000
0.00154628800000000
0.00159886700000000
0.00163024000000000
0.00164211500000000
0.00163226300000000
0.00159613500000000
0.00152911700000000
0.00142819700000000
0.00129401600000000
0.00113240700000000
0.000955254600000000
0.000777825500000000
0.000611595200000000
0.000463278500000000
0.000335768900000000
0.000227731200000000
0.000133554300000000
4.45316100000000e-05
-4.73912000000000e-05
-0.000147926500000000
-0.000260573200000000
-0.000386317400000000
-0.000522968500000000
-0.000664800100000000
-0.000802415200000000
-0.000923322300000000
-0.00101352600000000
-0.00106078200000000
-0.00105718400000000
-0.00100114000000000
-0.000898946500000000
-0.000765491500000000
-0.000619475600000000
-0.000472241600000000
-0.000329927200000000
-0.000195863500000000
-7.12504600000000e-05
4.29912000000000e-05
0.000145043600000000
0.000232559400000000
0.000303198000000000
0.000355090800000000
0.000387486900000000
0.000401241200000000
0.000398295000000000
0.000379154100000000
0.000342679700000000
0.000287823000000000
0.000215107200000000
0.000127483100000000
3.05281200000000e-05
-6.94193600000000e-05
-0.000167994700000000
-0.000262081600000000
-0.000349244400000000
-0.000427927900000000
-0.000497546000000000
-0.000558616300000000
-0.000612093300000000
-0.000657773800000000
-0.000694489300000000
-0.000721002200000000
-0.000736605100000000
-0.000741783200000000
-0.000738634000000000
-0.000731082500000000
-0.000724011500000000
-0.000721055700000000
-0.000724149900000000
-0.000733606100000000
-0.000747813700000000
-0.000763037400000000
-0.000773385300000000
-0.000771314000000000
-0.000748744300000000
-0.000698176000000000
-0.000613999800000000
-0.000494148600000000
-0.000341584500000000
-0.000165260900000000
2.16776300000000e-05
0.000207505500000000
0.000382206900000000
0.000536393000000000
0.000661487900000000
0.000749820600000000
0.000794389100000000
0.000790851400000000
0.000739671600000000
0.000647458500000000
0.000526161200000000
0.000387348800000000
0.000237935500000000
8.27503900000000e-05
-7.35666900000000e-05
-0.000226055700000000
-0.000369242200000000
-0.000498014700000000
-0.000608923800000000
-0.000700475900000000
-0.000773343900000000
-0.000830178600000000
-0.000873619300000000
-0.000905059400000000
-0.000926036100000000
-0.000939388300000000
-0.000949720100000000
-0.000963510000000000
-0.000987851000000000
-0.00102772800000000
-0.00108569800000000
-0.00116153800000000
-0.00125157800000000
-0.00134848600000000
-0.00144267500000000
-0.00152577300000000
-0.00159061100000000
-0.00163146100000000
-0.00164510200000000
-0.00163189400000000
-0.00159684500000000
-0.00155000800000000
-0.00150600300000000
-0.00147991300000000
-0.00147919000000000
-0.00150367800000000
-0.00154630100000000
-0.00159366800000000
-0.00163032100000000
-0.00164445200000000
-0.00162800300000000
-0.00157682400000000
-0.00149156900000000
-0.00137633300000000
-0.00123444900000000
-0.00106891900000000
-0.000884232900000000
-0.000686557700000000
-0.000481947000000000
-0.000273516700000000
-6.27870500000000e-05
0.000149220100000000
0.000361345000000000
0.000571962800000000
0.000778783600000000
0.000979197300000000
0.00117030000000000
0.00134909200000000
0.00151275000000000
0.00165899000000000
0.00178546900000000
0.00188797600000000
0.00196138300000000
0.00200165600000000
0.00200754400000000
0.00198192900000000
0.00193246400000000
0.00186881700000000
0.00179581600000000
0.00171521500000000
0.00162756500000000
0.00153271100000000
0.00143036800000000
0.00132042300000000
0.00120262600000000
0.00107535000000000
0.000936476800000000
0.000784265600000000
0.000618023300000000
0.000438594900000000
0.000248444400000000
5.02496900000000e-05
-0.000154973400000000
-0.000366835100000000
-0.000584445700000000
-0.000805855700000000
-0.00102737600000000
-0.00124313000000000
-0.00144469500000000
-0.00162151600000000
-0.00176184900000000
-0.00185431600000000
-0.00188972000000000
-0.00186325000000000
-0.00177688500000000
-0.00164096500000000
-0.00147077600000000
-0.00127628900000000
-0.00106268600000000
-0.000834003200000000
-0.000594904300000000
-0.000351650100000000
-0.000112527000000000
0.000113626700000000
0.000321013100000000
0.000506751100000000
0.000670624400000000
0.000815048700000000
0.000943063000000000
0.00105574700000000
0.00115357500000000
0.00123763500000000
0.00130994000000000
0.00137233400000000
0.00142346900000000
0.00146014200000000
0.00147874900000000
0.00147634000000000
0.00145157500000000
0.00140544700000000
0.00134024100000000
0.00125634200000000
0.00115399300000000
0.00103509500000000
0.000904175500000000
0.000768963600000000
0.000640311700000000
0.000530027800000000
0.000446348900000000
0.000393486000000000
0.000371346100000000
0.000374937300000000
0.000396474400000000
0.000430594600000000
0.000472898800000000
0.000518607000000000
0.000562590200000000
0.000600418400000000
0.000630977700000000
0.000656694900000000
0.000682931200000000
0.000717277600000000
0.000767877900000000
0.000839824300000000
0.000932375700000000
0.00103983400000000
0.00115492400000000
0.00127302300000000
0.00139114600000000
0.00150708600000000
0.00161936700000000
0.00172707600000000
0.00182941700000000
0.00192473800000000
0.00201060600000000
0.00208431200000000
0.00214341400000000
0.00218639900000000
0.00221339300000000
0.00222669000000000
0.00223051100000000
0.00222899000000000
0.00222464400000000
0.00221915900000000
0.00221393500000000
0.00221009800000000
0.00220850500000000
0.00220955600000000
0.00221299000000000
0.00221739500000000
0.00221962300000000
0.00221481500000000
0.00219680000000000
0.00215857400000000
0.00209326700000000
0.00199521100000000
0.00186109300000000
0.00169004600000000
0.00148350200000000
0.00124712800000000
0.000992278000000000
0.000734740700000000
0.000489930400000000
0.000268388200000000
7.62938800000000e-05
-8.48646600000000e-05
-0.000218895100000000
-0.000335058600000000
-0.000445079600000000
-0.000556792100000000
-0.000674804300000000
-0.000801376500000000
-0.000936040700000000
-0.00107562500000000
-0.00121425100000000
-0.00134396700000000
-0.00145571700000000
-0.00154079900000000
-0.00159224000000000
-0.00160659900000000
-0.00158573000000000
-0.00153817000000000
-0.00147952600000000
-0.00142944100000000
-0.00140429400000000
-0.00141713200000000
-0.00147706700000000
-0.00158738700000000
-0.00174394900000000
-0.00193556200000000
-0.00214789900000000
-0.00236476000000000
-0.00256696800000000
-0.00273393900000000
-0.00284860600000000
-0.00290216100000000
-0.00289510700000000
-0.00283781900000000
-0.00274835900000000
-0.00264339200000000
-0.00253110000000000
-0.00241397000000000
-0.00229090500000000
-0.00215815200000000
-0.00201059800000000
-0.00184304900000000
-0.00165162700000000
-0.00143548900000000
-0.00119860000000000
-0.000950697700000000
-0.000707334800000000
-0.000486787100000000
-0.000303116900000000
-0.000164198800000000
-7.15942500000000e-05
-2.15995000000000e-05
-1.01050600000000e-05
-3.34541400000000e-05
-8.59376400000000e-05
-0.000159065200000000
-0.000244417700000000
-0.000337782800000000
-0.000437253800000000
-0.000541466600000000
-0.000648852300000000
-0.000757066000000000
-0.000863008200000000
-0.000962937800000000
-0.00105245500000000
-0.00112680900000000
-0.00118146900000000
-0.00121267500000000
-0.00121855100000000
-0.00120045100000000
-0.00116396100000000
-0.00111820700000000
-0.00107311900000000
-0.00103975800000000
-0.00102999100000000
-0.00105386600000000
-0.00111515700000000
-0.00120946900000000
-0.00132394000000000
-0.00143829200000000
-0.00153076400000000
-0.00158630900000000
-0.00159659100000000
-0.00156000100000000
-0.00148244200000000
-0.00137416500000000
-0.00124153900000000
-0.00108728100000000
-0.000913446600000000
-0.000722945300000000
-0.000520798600000000
-0.000314780400000000
-0.000114424800000000
7.26284300000000e-05
0.000240604000000000
0.000384279900000000
0.000497209500000000
0.000571112500000000
0.000598084700000000
0.000572895100000000
0.000494955900000000
0.000368140900000000
0.000197580900000000
-7.79879400000000e-06
-0.000235289300000000
-0.000473865300000000
-0.000715637200000000
-0.000953682000000000
-0.00118092500000000
-0.00139003500000000
-0.00157348200000000
-0.00172391300000000
-0.00183549500000000
-0.00190565000000000
-0.00193659900000000
-0.00193637300000000
-0.00191699300000000
-0.00188788500000000
-0.00185371800000000
-0.00181655900000000
-0.00177707900000000
-0.00173510700000000
-0.00169014800000000
-0.00164175800000000
-0.00158988000000000
-0.00153459100000000
-0.00147540200000000
-0.00141155500000000
-0.00134235500000000
-0.00126726900000000
-0.00118606300000000
-0.00109867800000000
-0.00100476200000000
-0.000903325600000000
-0.000793383600000000
-0.000674500300000000
-0.000547343200000000
-0.000414037900000000
-0.000278392700000000
-0.000145246100000000
-1.87348200000000e-05
9.87291300000000e-05
0.000206327400000000
0.000304992100000000
0.000397260800000000
0.000486220900000000
0.000573895500000000
0.000661718300000000
0.000750814500000000
0.000842115100000000
0.000936313000000000
0.00103388600000000
0.00113504300000000
0.00123980100000000
0.00134817000000000
0.00146046600000000
0.00157697000000000
0.00169774900000000
0.00182235900000000
0.00194973100000000
0.00207824900000000
0.00220646900000000
0.00233360000000000
0.00245925300000000
0.00258317100000000
0.00270516700000000
0.00282492600000000
0.00294182200000000
0.00305449200000000
0.00315986100000000
0.00325203900000000
0.00332317000000000
0.00336462900000000
0.00336846700000000
0.00332917100000000
0.00324556400000000
0.00312228600000000
0.00296974700000000
0.00279957200000000
0.00261801800000000
0.00242837600000000
0.00223294100000000
0.00203365300000000
0.00183227600000000
0.00162997800000000
0.00142792900000000
0.00122789600000000
0.00103239400000000
0.000844812400000000
0.000669110100000000
0.000509332300000000
0.000368757800000000
0.000249077300000000
0.000149584000000000
6.73503800000000e-05
-7.57863900000000e-07
-5.65114800000000e-05
-0.000101687000000000
-0.000138881300000000
-0.000171725600000000
-0.000204136800000000
-0.000238242200000000
-0.000273480100000000
-0.000307059800000000
-0.000334235400000000
-0.000348775300000000
-0.000343625300000000
-0.000312057000000000
-0.000249125600000000
-0.000153199800000000
-2.72485100000000e-05
0.000120363700000000
0.000277819800000000
0.000435486600000000
0.000586220300000000
0.000724178400000000
0.000844827000000000
0.000945141100000000
0.00102383600000000
0.00108050000000000
0.00111302100000000
0.00111726000000000
0.00108929300000000
0.00102737700000000
0.000933839600000000
0.000816455400000000
0.000689059700000000
0.000568976500000000
0.000469776800000000
0.000397731500000000
0.000352592800000000
0.000327791600000000
0.000312673800000000
0.000298065900000000
0.000276855400000000
0.000243101100000000
0.000192331200000000
0.000121894500000000
3.14843600000000e-05
-7.67615300000000e-05
-0.000199721000000000
-0.000336896700000000
-0.000489073300000000
-0.000656858600000000
-0.000839686300000000
-0.00103495600000000
-0.00123730300000000
-0.00143850100000000
-0.00162904800000000
-0.00180228800000000
-0.00195525600000000
-0.00208874700000000
-0.00220742500000000
-0.00231943700000000
-0.00243318400000000
-0.00255312300000000
-0.00268029100000000
-0.00281293000000000
-0.00294651100000000
-0.00307472500000000
-0.00319150200000000
-0.00329241600000000
-0.00337502000000000
-0.00343945400000000
-0.00348873800000000
-0.00352803400000000
-0.00356150800000000
-0.00358993900000000
-0.00361161100000000
-0.00362317500000000
-0.00362021500000000
-0.00359816500000000
-0.00355345400000000
-0.00348466900000000
-0.00339351200000000
-0.00328497900000000
-0.00316514200000000
-0.00303780900000000
-0.00290584500000000
-0.00277224800000000
-0.00264037600000000
-0.00251399000000000
-0.00239697100000000
-0.00229254100000000
-0.00220250900000000
-0.00212670300000000
-0.00206253800000000
-0.00200474000000000
-0.00194600000000000
-0.00187928000000000
-0.00179992900000000
-0.00170556200000000
-0.00159628600000000
-0.00147493100000000
-0.00134704800000000
-0.00121935300000000
-0.00109630200000000
-0.000979441900000000
-0.000867818100000000
-0.000757963300000000
-0.000644352100000000
-0.000520377100000000
-0.000380085100000000
-0.000218956700000000
-3.50160400000000e-05
0.000170145500000000
0.000390546000000000
0.000616744300000000
0.000838659100000000
0.00104533000000000
0.00122496200000000
0.00136646900000000
0.00146156600000000
0.00150674500000000
0.00150499200000000
0.00146695500000000
0.00140925200000000
0.00134724000000000
0.00128907900000000
0.00123777700000000
0.00119252500000000
0.00114923100000000
0.00110150000000000
0.00104320900000000
0.000972940200000000
0.000894053000000000
0.000814102600000000
0.000742710800000000
0.000686890600000000
0.000650807200000000
0.000635578400000000
0.000639005200000000
0.000656979800000000
0.000684478000000000
0.000714587900000000
0.000738180500000000
0.000744747800000000
0.000724791700000000
0.000673056400000000
0.000589409700000000
0.000479550700000000
0.000355229300000000
0.000231974600000000
0.000121904400000000
2.79563600000000e-05
-5.45588400000000e-05
-0.000135657600000000
-0.000225887200000000
-0.000329917000000000
-0.000446928500000000
-0.000571221200000000
-0.000693813400000000
-0.000806707100000000
-0.000903733800000000
-0.000980559800000000
-0.00103536700000000
-0.00106940200000000
-0.00108627000000000
-0.00108890200000000
-0.00107871400000000
-0.00105681000000000
-0.00102458500000000
-0.000983104200000000
-0.000931361100000000
-0.000867350400000000
-0.000789260300000000
-0.000696388700000000
-0.000589962700000000
-0.000473668000000000
-0.000353009400000000
-0.000232838600000000
-0.000116385500000000
-5.87804000000000e-06
9.72710300000000e-05
0.000192150300000000
0.000277414600000000
0.000350718300000000
0.000409592300000000
0.000452311000000000
0.000478735400000000
0.000491026600000000
0.000494153600000000
0.000495266300000000
0.000501075800000000
0.000515605100000000
0.000540676200000000
0.000576179000000000
0.000620459700000000
0.000671823100000000
0.000729638300000000
0.000793637200000000
0.000863348000000000
0.000937775600000000
0.00101518300000000
0.00109333100000000
0.00117035800000000
0.00124451300000000
0.00131405100000000
0.00137737900000000
0.00143332800000000
0.00148150000000000
0.00152264000000000
0.00155889400000000
0.00159360200000000
0.00163031100000000
0.00167230000000000
0.00172259500000000
0.00178367700000000
0.00185695500000000
0.00194220700000000
0.00203711000000000
0.00213740100000000
0.00223818700000000
0.00233431300000000
0.00242002100000000
0.00248900100000000
0.00253489800000000
0.00255194300000000
0.00253549300000000
0.00248137700000000
0.00238499400000000
0.00224386800000000
0.00206008300000000
0.00184162700000000
0.00160050300000000
0.00134653700000000
0.00108951100000000
0.000840683900000000
0.000612339200000000
0.000415009300000000
0.000252368900000000
0.000120923200000000
1.04856200000000e-05
-9.29427500000000e-05
-0.000199678000000000
-0.000315609400000000
-0.000443207300000000
-0.000581691600000000
-0.000727067200000000
-0.000873371000000000
-0.00101523800000000
-0.00114797100000000
-0.00126757400000000
-0.00137126700000000
-0.00145769800000000
-0.00152641200000000
-0.00157582800000000
-0.00160447300000000
-0.00161226000000000
-0.00160132800000000
-0.00157653000000000
-0.00154435300000000
-0.00150954800000000
-0.00147523800000000
-0.00144391900000000
-0.00141780700000000
-0.00139892600000000
-0.00138908900000000
-0.00138977800000000
-0.00140215200000000
-0.00142762600000000
-0.00146867700000000
-0.00152763300000000
-0.00160542400000000
-0.00170056300000000
-0.00180843000000000
-0.00192151500000000
-0.00203171700000000
-0.00213233500000000
-0.00221783300000000
-0.00228402700000000
-0.00232886400000000
-0.00264461000000000
-0.00265263700000000
-0.00265078200000000
-0.00264523900000000
-0.00264048900000000
-0.00264005300000000
-0.00264660000000000
-0.00266172100000000
-0.00268557300000000
-0.00271652400000000
-0.00275089700000000
-0.00278317400000000
-0.00280689400000000
-0.00281490000000000
-0.00279953700000000
-0.00275291400000000
-0.00266745600000000
-0.00253773100000000
-0.00236244200000000
-0.00214586100000000
-0.00189745700000000
-0.00162715400000000
-0.00134195000000000
-0.00104841300000000
-0.000754397500000000
-0.000469006100000000
-0.000201324400000000
4.10750100000000e-05
0.000252418700000000
0.000429455800000000
0.000572158100000000
0.000682648800000000
0.000761620100000000
0.000810736200000000
0.000834749100000000
0.000842234900000000
0.000843549800000000
0.000845458300000000
0.000852239700000000
0.000866673100000000
0.000889786000000000
0.000920591700000000
0.000955691800000000
0.000989077200000000
0.00101214400000000
0.00101414800000000
0.000983162300000000
0.000907638400000000
0.000778512200000000
0.000591659300000000
0.000350270800000000
6.63883400000000e-05
-0.000241010000000000
-0.000553964100000000
-0.000858363300000000
-0.00114214300000000
-0.00139501400000000
-0.00160953600000000
-0.00178236000000000
-0.00191558000000000
-0.00201749900000000
-0.00210267000000000
-0.00218768400000000
-0.00228226100000000
-0.00239017000000000
-0.00251041600000000
-0.00263704700000000
-0.00276001000000000
-0.00286728400000000
-0.00294723600000000
-0.00298951100000000
-0.00298648400000000
-0.00293479200000000
-0.00283645700000000
-0.00269664500000000
-0.00251731900000000
-0.00230043000000000
-0.00205103700000000
-0.00177852000000000
-0.00149604700000000
-0.00121619500000000
-0.000947383800000000
-0.000695225100000000
-0.000463119900000000
-0.000252089700000000
-6.05249100000000e-05
0.000115146000000000
0.000278062800000000
0.000429216000000000
0.000568778500000000
0.000697165200000000
0.000815688900000000
0.000926922600000000
0.00103423600000000
0.00113992400000000
0.00124520400000000
0.00135060600000000
0.00145602500000000
0.00156057200000000
0.00166243300000000
0.00175841700000000
0.00184338100000000
0.00191063200000000
0.00195303700000000
0.00196432600000000
0.00194070400000000
0.00188256100000000
0.00179598500000000
0.00169353900000000
0.00159300200000000
0.00151214800000000
0.00146404200000000
0.00145682500000000
0.00149279000000000
0.00156689000000000
0.00166608500000000
0.00177123600000000
0.00186420500000000
0.00193371900000000
0.00197427500000000
0.00198542900000000
0.00197078800000000
0.00193407000000000
0.00187631300000000
0.00179764000000000
0.00169873300000000
0.00158170100000000
0.00145068900000000
0.00131114400000000
0.00116677900000000
0.00101888500000000
0.000867817500000000
0.000714025000000000
0.000558552400000000
0.000403515400000000
0.000252260900000000
0.000109269800000000
-2.04464300000000e-05
-0.000132011900000000
-0.000221590400000000
-0.000287356300000000
-0.000330664800000000
-0.000356738900000000
-0.000374833000000000
-0.000395749600000000
-0.000426464200000000
-0.000470579800000000
-0.000528874200000000
-0.000598972600000000
-0.000675979200000000
-0.000754418300000000
-0.000829950600000000
-0.000898921700000000
-0.000958299700000000
-0.00100590600000000
-0.00104074900000000
-0.00106324100000000
-0.00107531600000000
-0.00107970000000000
-0.00107797100000000
-0.00106997500000000
-0.00105464500000000
-0.00103061700000000
-0.000996798400000000
-0.000952944200000000
-0.000900140600000000
-0.000841040600000000
-0.000778980600000000
-0.000715781300000000
-0.000652304000000000
-0.000589003100000000
-0.000526009400000000
-0.000463259300000000
-0.000400558000000000
-0.000337697200000000
-0.000274539100000000
-0.000211125100000000
-0.000147735000000000
-8.49283800000000e-05
-2.34986200000000e-05
3.55382900000000e-05
9.10438400000000e-05
0.000141889800000000
0.000187166800000000
0.000226406900000000
0.000259807200000000
0.000288359500000000
0.000313652200000000
0.000337104100000000
0.000359715800000000
0.000382278300000000
0.000405443200000000
0.000429682400000000
0.000455224400000000
0.000481958400000000
0.000509342600000000
0.000536296000000000
0.000561127600000000
0.000581594500000000
0.000595093400000000
0.000598976000000000
0.000590983500000000
0.000569777500000000
0.000535493200000000
0.000490147800000000
0.000437572100000000
0.000382027000000000
0.000326246400000000
0.000272047400000000
0.000220772400000000
0.000173309800000000
0.000130078200000000
9.10028200000000e-05
5.55694700000000e-05
2.31069000000000e-05
-7.30355700000000e-06
-3.69760400000000e-05
-6.76763000000000e-05
-0.000101551600000000
-0.000140967900000000
-0.000188192600000000
-0.000245059500000000
-0.000312583700000000
-0.000390271300000000
-0.000475436900000000
-0.000562756500000000
-0.000644196700000000
-0.000709752400000000
-0.000749819800000000
-0.000758379400000000
-0.000733341000000000
-0.000676667000000000
-0.000592560400000000
-0.000482394500000000
-0.000345636700000000
-0.000182494100000000
4.37908700000000e-06
0.000208814700000000
0.000421167000000000
0.000631431900000000
0.000833595800000000
0.00102413000000000
0.00120067100000000
0.00136117100000000
0.00150235400000000
0.00162046800000000
0.00171217100000000
0.00177529100000000
0.00180943600000000
0.00181532300000000
0.00179178400000000
0.00173575400000000
0.00164488200000000
0.00151949200000000
0.00136298300000000
0.00118054800000000
0.000981012500000000
0.000777760300000000
0.000586900000000000
0.000421351500000000
0.000286019700000000
0.000178776400000000
9.15720700000000e-05
1.38560300000000e-05
-6.03118100000000e-05
-0.000133501200000000
-0.000206172800000000
-0.000276849500000000
-0.000342560000000000
-0.000399713300000000
-0.000445606800000000
-0.000479389900000000
-0.000502313300000000
-0.000517787700000000
-0.000530259400000000
-0.000542542400000000
-0.000555565400000000
-0.000568885700000000
-0.000580820400000000
-0.000588766200000000
-0.000589963600000000
-0.000582539000000000
-0.000565753600000000
-0.000540266900000000
-0.000508341200000000
-0.000473507400000000
-0.000439176300000000
-0.000407535800000000
-0.000379872000000000
-0.000356714300000000
-0.000337790900000000
-0.000322063400000000
-0.000308097000000000
-0.000294903200000000
-0.000281980700000000
-0.000269128100000000
-0.000256367300000000
-0.000243861300000000
-0.000231820100000000
-0.000220376500000000
-0.000209444900000000
-0.000198531800000000
-0.000186632300000000
-0.000172284800000000
-0.000153720900000000
-0.000129080100000000
-9.67451800000000e-05
-5.57131200000000e-05
-6.02761600000000e-06
5.09454300000000e-05
0.000112402800000000
0.000174998300000000
0.000236790900000000
0.000296738900000000
0.000354176900000000
0.000408730400000000
0.000460180700000000
0.000508425600000000
0.000553387700000000
0.000594975600000000
0.000632974000000000
0.000666862200000000
0.000695731000000000
0.000718543800000000
0.000734404100000000
0.000742852500000000
0.000744132900000000
0.000739373300000000
0.000730518200000000
0.000719599200000000
0.000707761200000000
0.000695601100000000
0.000683437300000000
0.000671363600000000
0.000659311500000000
0.000647088300000000
0.000634431200000000
0.000621051500000000
0.000606685200000000
0.000591125400000000
0.000574235200000000
0.000555929100000000
0.000536251200000000
0.000515415900000000
0.000493820500000000
0.000471909700000000
0.000449882700000000
0.000427712700000000
0.000405281100000000
0.000382440700000000
0.000359096800000000
0.000335265000000000
0.000311127500000000
0.000287032900000000
0.000263377600000000
0.000240312400000000
0.000217846900000000
0.000195900800000000
0.000174353600000000
0.000153070600000000
0.000131948000000000
0.000110935000000000
9.00647900000000e-05
6.93918300000000e-05
4.88642400000000e-05
2.84066600000000e-05
8.03237900000000e-06
-1.21094700000000e-05
-3.16859500000000e-05
-5.02121200000000e-05
-6.71572200000000e-05
-8.20563100000000e-05
-9.44918500000000e-05
-0.000104146000000000
-0.000110850400000000
-0.000114665400000000
-0.000115922200000000
-0.000115241400000000
-0.000113351600000000
-0.000110723000000000
-0.000107663900000000
-0.000104418700000000
-0.000101162600000000
-9.80010500000000e-05
-9.49297800000000e-05
-9.17856600000000e-05
-8.82411600000000e-05
-8.38335800000000e-05
-7.79985500000000e-05
-7.01372900000000e-05
-5.96958500000000e-05
-4.62630900000000e-05
-2.96239300000000e-05
-9.74566900000000e-06
1.30320900000000e-05
3.78713800000000e-05
6.34252300000000e-05
8.82075500000000e-05
0.000111350100000000
0.000132392000000000
0.000151088500000000
0.000167387800000000
0.000181391200000000
0.000193289300000000
0.000203236600000000
0.000211399000000000
0.000217987700000000
0.000223269200000000
0.000227532500000000
0.000230983300000000
0.000233677600000000
0.000235587600000000
0.000236650100000000
0.000236797600000000
0.000235986600000000
0.000234220100000000
0.000231560200000000
0.000228102500000000
0.000223897000000000
0.000218944400000000
0.000213257000000000
0.000206899400000000
0.000200017000000000
0.000192845900000000
0.000185694200000000
0.000178848200000000
0.000172462300000000
0.000166593100000000
0.000161226900000000
0.000156279100000000
0.000151605700000000
0.000147016300000000
0.000142315200000000
0.000137363100000000
0.000132095300000000
0.000126523000000000
0.000120739900000000
0.000114901800000000
0.000109166900000000
0.000103620100000000
9.83136400000000e-05
9.32937700000000e-05
8.86095300000000e-05
8.43118300000000e-05
8.04269700000000e-05
7.68984300000000e-05
7.36252600000000e-05
7.04975300000000e-05
6.74228200000000e-05
6.43542300000000e-05
6.13202700000000e-05
5.84331300000000e-05
5.58866500000000e-05
5.39311200000000e-05
5.27986400000000e-05
5.25746700000000e-05
5.32290800000000e-05
5.46510700000000e-05
5.66958700000000e-05
5.92349600000000e-05
6.21285400000000e-05
6.52112600000000e-05
6.83206900000000e-05
7.13542100000000e-05
7.42566700000000e-05
7.69937100000000e-05
7.95422700000000e-05
8.18899400000000e-05
8.40423800000000e-05
8.60138700000000e-05
8.78211500000000e-05
8.94805800000000e-05
9.10070400000000e-05
9.24147500000000e-05
9.37184500000000e-05
9.49288900000000e-05
9.60492200000000e-05
9.70724100000000e-05
9.79800900000000e-05
9.87433200000000e-05
9.93261700000000e-05
9.96975000000000e-05
9.98498900000000e-05
9.97960800000000e-05
9.95608700000000e-05
9.91762900000000e-05
9.86753700000000e-05
9.80833100000000e-05
9.74159700000000e-05
9.66831000000000e-05
9.58903500000000e-05
9.50405400000000e-05
9.41355700000000e-05
9.31781600000000e-05
9.21726100000000e-05
9.11250400000000e-05
9.00434300000000e-05
8.89373200000000e-05
8.78170100000000e-05
8.66915900000000e-05
8.55664300000000e-05
8.44439800000000e-05
8.33253600000000e-05
8.22108100000000e-05
8.11002000000000e-05
7.99931500000000e-05
7.88892600000000e-05
7.77881100000000e-05
7.66893300000000e-05
7.55923600000000e-05
7.44966500000000e-05
7.34016500000000e-05
7.23069100000000e-05
7.12120000000000e-05
7.01165300000000e-05
6.90201900000000e-05
6.79227300000000e-05
6.68239700000000e-05
6.57238300000000e-05
6.46222600000000e-05
6.35193100000000e-05
6.24150100000000e-05
6.13094600000000e-05
6.02028000000000e-05
5.90951900000000e-05
5.79868400000000e-05
5.68779700000000e-05
5.57688400000000e-05
5.46597300000000e-05
5.35509700000000e-05
5.24428900000000e-05
5.13358600000000e-05
5.02302700000000e-05